Potential,Flux
10.515,-0.14399393
10.476017017017018,-0.14430684
10.437034034034035,-0.14462559
10.398051051051052,-0.14494824
10.35906806806807,-0.14527701
10.320085085085086,-0.14560916
10.281102102102103,-0.1459468
10.24211911911912,-0.14628963
10.203136136136136,-0.14663744
10.164153153153153,-0.14699061
10.12517017017017,-0.14734846
10.086187187187187,-0.14771181
10.047204204204204,-0.14807974
10.008221221221222,-0.14845346
9.969238238238239,-0.14883278
9.930255255255256,-0.14921816
9.891272272272273,-0.14960834
9.85228928928929,-0.1500054
9.813306306306307,-0.15040693
9.774323323323324,-0.15081565
9.735340340340342,-0.151229
9.696357357357359,-0.15164967
9.657374374374374,-0.15207645
9.618391391391391,-0.15250807
9.579408408408408,-0.15294759
9.540425425425425,-0.15339461
9.501442442442443,-0.15384644
9.46245945945946,-0.15430489
9.423476476476477,-0.15477078
9.384493493493494,-0.15524395
9.345510510510511,-0.15572335
9.306527527527528,-0.15621012
9.267544544544545,-0.1567054
9.228561561561563,-0.15720773
9.18957857857858,-0.15771656
9.150595595595597,-0.15823402
9.111612612612614,-0.15875965
9.072629629629631,-0.15929298
9.033646646646648,-0.1598346
8.994663663663664,-0.16038412
8.95568068068068,-0.16094317
8.916697697697698,-0.16151042
8.877714714714715,-0.16208616
8.838731731731732,-0.16267087
8.79974874874875,-0.1632653
8.760765765765766,-0.16386941
8.721782782782784,-0.16448306
8.6827997997998,-0.16510586
8.643816816816818,-0.16573936
8.604833833833835,-0.16638269
8.565850850850852,-0.16703664
8.526867867867868,-0.16770187
8.487884884884885,-0.1683761
8.448901901901902,-0.16906321
8.409918918918919,-0.16976158
8.370935935935936,-0.17047092
8.331952952952953,-0.17119263
8.29296996996997,-0.17192604
8.253986986986988,-0.17267255
8.215004004004005,-0.17343171
8.176021021021022,-0.17420314
8.137038038038039,-0.17498904
8.098055055055056,-0.17578815
8.059072072072073,-0.17660059
8.02008908908909,-0.17742832
7.981106106106107,-0.17826983
7.942123123123125,-0.17912711
7.903140140140141,-0.17999925
7.864157157157158,-0.18088736
7.825174174174174,-0.1817918
7.786191191191191,-0.1827126
7.7472082082082085,-0.18364982
7.708225225225226,-0.18460526
7.669242242242243,-0.18557826
7.63025925925926,-0.18656944
7.591276276276277,-0.18757893
7.552293293293294,-0.18860929
7.513310310310311,-0.18965773
7.4743273273273285,-0.1907268
7.435344344344345,-0.19181679
7.396361361361363,-0.19292809
7.357378378378379,-0.19406112
7.318395395395396,-0.19521643
7.279412412412413,-0.19639587
7.2404294294294305,-0.19759844
7.201446446446447,-0.1988244
7.162463463463464,-0.2000774
7.123480480480481,-0.20135543
7.084497497497498,-0.20265888
7.045514514514515,-0.20399101
7.006531531531532,-0.2053502
6.9675485485485495,-0.20673811
6.928565565565567,-0.20815544
6.889582582582584,-0.20960413
6.850599599599601,-0.21108398
6.811616616616617,-0.21259458
6.772633633633634,-0.21413937
6.7336506506506515,-0.21571973
6.6946676676676695,-0.21733333
6.655684684684685,-0.2189837
6.616701701701702,-0.22067095
6.577718718718719,-0.22239679
6.538735735735736,-0.22416191
6.499752752752753,-0.22596866
6.460769769769771,-0.22781597
6.421786786786788,-0.22970745
6.382803803803805,-0.23164369
6.343820820820821,-0.23362568
6.304837837837838,-0.2356542
6.265854854854856,-0.23773342
6.2268718718718725,-0.23986158
6.18788888888889,-0.24204123
6.148905905905907,-0.2442757
6.109922922922924,-0.24656564
6.070939939939941,-0.24891135
6.031956956956958,-0.25131783
5.9929739739739745,-0.2537841
5.953990990990992,-0.2563124
5.91500800800801,-0.2589062
5.876025025025026,-0.2615675
5.837042042042043,-0.26429832
5.798059059059059,-0.26710036
5.759076076076077,-0.269975
5.720093093093094,-0.27292556
5.681110110110111,-0.27595776
5.642127127127128,-0.27907002
5.603144144144145,-0.28226602
5.564161161161162,-0.28555056
5.525178178178179,-0.288923
5.486195195195196,-0.2923907
5.447212212212213,-0.29595605
5.40822922922923,-0.2996182
5.369246246246248,-0.30338523
5.330263263263264,-0.3072579
5.291280280280281,-0.31124446
5.252297297297298,-0.3153435
5.2133143143143155,-0.3195608
5.174331331331333,-0.32390177
5.135348348348349,-0.32837117
5.096365365365366,-0.3329705
5.057382382382383,-0.33770624
5.0183993993994,-0.34258416
4.979416416416417,-0.34760898
4.9404334334334346,-0.35278612
4.901450450450451,-0.35812038
4.862467467467469,-0.36361757
4.823484484484486,-0.3692856
4.784501501501502,-0.3751262
4.745518518518519,-0.38115215
4.7065355355355365,-0.38736558
4.667552552552554,-0.39377534
4.628569569569571,-0.40038854
4.589586586586588,-0.40721112
4.550603603603604,-0.4142547
4.511620620620621,-0.42152455
4.472637637637639,-0.4290293
4.433654654654656,-0.43677893
4.394671671671673,-0.44478315
4.355688688688689,-0.4530497
4.316705705705707,-0.46159083
4.277722722722724,-0.4704164
4.23873973973974,-0.47953627
4.1997567567567575,-0.48896173
4.160773773773775,-0.49870476
4.121790790790792,-0.50878066
4.082807807807809,-0.5191969
4.043824824824826,-0.5299699
4.004841841841842,-0.54111177
3.9658588588588604,-0.5526406
3.9268758758758775,-0.5645652
3.8878928928928937,-0.5769042
3.848909909909911,-0.5896721
3.809926926926928,-0.6028877
3.770943943943945,-0.61656827
3.7319609609609623,-0.63072747
3.6929779779779786,-0.64538723
3.6539949949949957,-0.660567
3.615012012012013,-0.6762832
3.57602902902903,-0.69255865
3.537046046046047,-0.70941377
3.4980630630630642,-0.72686976
3.4590800800800805,-0.7449486
3.4200970970970985,-0.7636784
3.3811141141141157,-0.7830742
3.342131131131132,-0.8031703
3.303148148148149,-0.8239866
3.264165165165166,-0.8455504
3.2251821821821833,-0.8678868
3.1861991991992005,-0.89102757
3.1472162162162176,-0.9149958
3.108233233233234,-0.93982655
3.069250250250252,-0.9655471
3.030267267267268,-0.9921853
2.9912842842842853,-1.0197769
2.9523013013013024,-1.0483494
2.9133183183183187,-1.0779374
2.8743353353353376,-1.1085744
2.835352352352353,-1.1402951
2.79636936936937,-1.1731321
2.7573863863863872,-1.2071189
2.7184034034034044,-1.242291
2.6794204204204224,-1.278687
2.6404374374374378,-1.3163381
2.601454454454455,-1.3552818
2.562471471471472,-1.395555
2.52348848848849,-1.4371932
2.4845055055055063,-1.4802318
2.4455225225225234,-1.5247039
2.4065395395395406,-1.570653
2.3675565565565577,-1.6181061
2.328573573573575,-1.6670965
2.289590590590592,-1.71767
2.250607607607609,-1.7698458
2.2116246246246263,-1.823666
2.1726416416416416,-1.8791572
2.133658658658659,-1.936352
2.094675675675676,-1.9952748
2.055692692692695,-2.0559542
2.016709709709712,-2.1184258
1.9777267267267291,-2.1826982
1.9387437437437445,-2.2488017
1.8997607607607616,-2.3167536
1.8607777777777788,-2.3865707
1.821794794794796,-2.4582708
1.782811811811813,-2.5318668
1.7438288288288284,-2.6073594
1.7048458458458473,-2.6847687
1.6658628628628644,-2.764087
1.6268798798798816,-2.845316
1.5878968968968987,-2.928453
1.5489139139139159,-3.013494
1.5099309309309312,-3.1004257
1.4709479479479484,-3.1892262
1.4319649649649655,-3.2798805
1.3929819819819826,-3.3723733
1.3539989989990016,-3.4666677
1.3150160160160187,-3.562737
1.276033033033034,-3.660528
1.2370500500500512,-3.7600174
1.1980670670670683,-3.861151
1.1590840840840855,-3.9638767
1.1201011011011026,-4.0681343
1.081118118118118,-4.1738677
1.0421351351351351,-4.2809935
1.003152152152154,-4.389466
0.9641691691691712,-4.4991856
0.9251861861861883,-4.6100783
0.8862032032032054,-4.7220497
0.8472202202202208,-4.8350034
0.808237237237238,-4.94886
0.7692542542542551,-5.0634894
0.7302712712712722,-5.1788025
0.6912882882882894,-5.294676
0.6523053053053065,-5.410993
0.6133223223223236,-5.5276318
0.5743393393393408,-5.6444674
0.5353563563563579,-5.7613697
0.49637337337337506,-5.8782015
0.4573903903903922,-5.9948363
0.41840740740740756,-6.111127
0.3794244244244247,-6.226932
0.34044144144144184,-6.342118
0.301458458458459,-6.456535
0.2624754754754779,-6.5700355
0.22349249249249503,-6.6824775
0.1845095095095104,-6.793716
0.14552652652652753,-6.903614
0.10654354354354467,-7.0120215
0.06756056056056181,-7.118803
0.02857757757757895,-7.223824
-0.010405405405403911,-7.3269415
-0.04938838838838855,-7.428036
-0.08837137137136963,-7.526971
-0.1273543543543525,-7.62364
-0.16633733733733536,-7.717909
-0.20532032032031822,-7.8096814
-0.24430330330330285,-7.898852
-0.2832862862862857,-7.9853163
-0.3222692692692686,-8.068982
-0.36125225225225144,-8.149766
-0.4002352352352343,-8.227598
-0.4392182182182154,-8.302398
-0.4782012012012,-8.374115
-0.5171841841841829,-8.442689
-0.5561671671671657,-8.508065
-0.5951501501501486,-8.570212
-0.6341331331331315,-8.629102
-0.6731161161161143,-8.684701
-0.712099099099099,-8.736993
-0.7510820820820818,-8.785976
-0.7900650650650629,-8.831639
-0.8290480480480458,-8.873994
-0.8680310310310286,-8.913051
-0.9070140140140133,-8.948825
-0.9459969969969961,-8.98134
-0.984979979979979,-9.010631
-1.0239629629629619,-9.036723
-1.0629459459459447,-9.059673
-1.1019289289289276,-9.079516
-1.1409119119119104,-9.096308
-1.1798948948948933,-9.1101
-1.2188778778778762,-9.1209545
-1.257860860860859,-9.128936
-1.2968438438438419,-9.134107
-1.3358268268268247,-9.13654
-1.3748098098098094,-9.136313
-1.4137927927927922,-9.133489
-1.452775775775775,-9.128157
-1.491758758758758,-9.120391
-1.530741741741739,-9.110268
-1.569724724724722,-9.097881
-1.6087077077077065,-9.083307
-1.6476906906906894,-9.066629
-1.6866736736736723,-9.047938
-1.7256566566566551,-9.027318
-1.764639639639638,-9.004843
-1.8036226226226226,-8.980617
-1.8426056056056055,-8.954711
-1.8815885885885866,-8.92722
-1.9205715715715694,-8.898218
-1.9595545545545523,-8.867795
-1.9985375375375352,-8.836032
-2.03752052052052,-8.803008
-2.0765035035035027,-8.768798
-2.1154864864864855,-8.733492
-2.1544694694694684,-8.697156
-2.1934524524524512,-8.659869
-2.2324354354354323,-8.621705
-2.271418418418417,-8.582735
-2.3104014014014,-8.543026
-2.3493843843843827,-8.502651
-2.3883673673673655,-8.461669
-2.4273503503503484,-8.420146
-2.466333333333333,-8.378144
-2.505316316316316,-8.335712
-2.5442992992992988,-8.292929
-2.58328228228228,-8.249825
-2.6222652652652627,-8.206463
-2.6612482482482456,-8.162892
-2.70023123123123,-8.119156
-2.739214214214213,-8.07531
-2.778197197197196,-8.031388
-2.817180180180179,-7.987434
-2.8561631631631617,-7.943485
-2.8951461461461445,-7.8995824
-2.9341291291291274,-7.855752
-2.9731121121121102,-7.812036
-3.012095095095093,-7.7684627
-3.051078078078076,-7.725053
-3.090061061061059,-7.681843
-3.1290440440440435,-7.638853
-3.1680270270270263,-7.596109
-3.207010010010009,-7.5536275
-3.245992992992992,-7.511432
-3.284975975975975,-7.469541
-3.323958958958956,-7.427971
-3.3629419419419406,-7.3867316
-3.4019249249249235,-7.345841
-3.4409079079079063,-7.3053164
-3.479890890890889,-7.2651615
-3.518873873873872,-7.2253876
-3.557856856856855,-7.186006
-3.5968398398398396,-7.1470237
-3.6358228228228224,-7.1084466
-3.6748058058058035,-7.0702806
-3.7137887887887864,-7.032526
-3.7527717717717692,-6.995194
-3.791754754754754,-6.9582863
-3.8307377377377367,-6.921796
-3.8697207207207196,-6.885736
-3.9087037037037025,-6.850101
-3.9476866866866853,-6.8148947
-3.986669669669668,-6.7801075
-4.025652652652651,-6.745747
-4.064635635635634,-6.7118134
-4.103618618618617,-6.678298
-4.1426016016016,-6.645202
-4.1815845845845825,-6.6125207
-4.220567567567565,-6.5802526
-4.25955055055055,-6.5483937
-4.298533533533533,-6.516939
-4.337516516516516,-6.485884
-4.376499499499497,-6.455226
-4.41548248248248,-6.424962
-4.454465465465464,-6.395079
-4.493448448448447,-6.3655806
-4.53243143143143,-6.3364596
-4.571414414414413,-6.307711
-4.610397397397396,-6.2793245
-4.649380380380379,-6.251299
-4.688363363363363,-6.223626
-4.727346346346344,-6.1963086
-4.766329329329325,-6.1693296
-4.80531231231231,-6.142689
-4.844295295295295,-6.1163793
-4.883278278278276,-6.0904007
-4.92226126126126,-6.064736
-4.9612442442442415,-6.0393915
-5.000227227227226,-6.014354
-5.039210210210211,-5.9896193
-5.078193193193192,-5.9651804
-5.117176176176175,-5.9410324
-5.156159159159156,-5.9171743
-5.19514214214214,-5.893599
-5.234125125125125,-5.8702946
-5.273108108108106,-5.8472633
-5.312091091091091,-5.824494
-5.351074074074072,-5.801982
-5.3900570570570565,-5.7797294
-5.429040040040038,-5.7577233
-5.4680230230230205,-5.7359576
-5.507006006006005,-5.7144346
-5.545988988988988,-5.693151
-5.584971971971971,-5.67209
-5.623954954954954,-5.6512556
-5.6629379379379365,-5.630642
-5.701920920920919,-5.610247
-5.740903903903902,-5.5900564
-5.779886886886885,-5.570079
-5.818869869869868,-5.5503035
-5.857852852852851,-5.530725
-5.896835835835837,-5.5113425
-5.935818818818817,-5.4921474
-5.974801801801799,-5.473142
-6.013784784784782,-5.4543214
-6.052767767767765,-5.4356756
-6.091750750750748,-5.417209
-6.130733733733731,-5.3989124
-6.169716716716717,-5.3807864
-6.208699699699697,-5.3628254
-6.247682682682683,-5.345026
-6.286665665665662,-5.327388
-6.325648648648649,-5.3099017
-6.364631631631632,-5.2925706
-6.403614614614611,-5.27539
-6.442597597597597,-5.2583575
-6.481580580580577,-5.2414665
-6.520563563563563,-5.224715
-6.559546546546542,-5.208107
-6.598529529529529,-5.191634
-6.637512512512512,-5.1752944
-6.6764954954954945,-5.1590824
-6.715478478478477,-5.143006
-6.754461461461457,-5.127049
-6.793444444444443,-5.111221
-6.832427427427426,-5.0955114
-6.871410410410409,-5.0799255
-6.910393393393392,-5.064451
-6.9493763763763745,-5.0490985
-6.988359359359357,-5.0338545
-7.027342342342344,-5.018724
-7.066325325325323,-5.003705
-7.105308308308306,-4.9887915
-7.144291291291289,-4.973985
-7.183274274274272,-4.959282
-7.2222572572572545,-4.9446807
-7.261240240240237,-4.9301834
-7.300223223223224,-4.915781
-7.339206206206203,-4.9014797
-7.3781891891891895,-4.887274
-7.417172172172169,-4.873159
-7.456155155155152,-4.8591423
-7.495138138138138,-4.845215
-7.534121121121117,-4.83138
-7.573104104104104,-4.817629
-7.612087087087083,-4.8039684
-7.65107007007007,-4.790396
-7.690053053053052,-4.7769065
-7.729036036036035,-4.7635
-7.768019019019018,-4.750176
-7.8070020020019975,-4.736935
-7.845984984984984,-4.7237735
-7.884967967967963,-4.710691
-7.92395095095095,-4.6976833
-7.9629339339339325,-4.684756
-8.001916916916915,-4.671903
-8.040899899899898,-4.6591253
-8.079882882882881,-4.6464205
-8.118865865865864,-4.6337886
-8.157848848848847,-4.6212287
-8.19683183183183,-4.6087394
-8.235814814814812,-4.596316
-8.274797797797795,-4.583966
-8.313780780780778,-4.571685
-8.352763763763765,-4.5594635
-8.391746746746744,-4.547314
-8.43072972972973,-4.5352283
-8.46971271271271,-4.523206
-8.508695695695693,-4.511246
-8.547678678678675,-4.499351
-8.586661661661658,-4.4875174
-8.625644644644645,-4.4757433
-8.664627627627624,-4.4640274
-8.70361061061061,-4.4523726
-8.74259359359359,-4.4407783
-8.781576576576576,-4.429239
-8.820559559559559,-4.4177547
-8.859542542542538,-4.406327
-8.898525525525525,-4.394954
-8.937508508508504,-4.383638
-8.937508508508511,-4.372375
-8.898525525525526,-4.3611593
-8.859542542542545,-4.35
-8.82055955955956,-4.338892
-8.78157657657658,-4.327828
-8.742593593593595,-4.3168197
-8.703610610610614,-4.3058586
-8.66462762762763,-4.294944
-8.625644644644645,-4.2840815
-8.586661661661664,-4.2732577
-8.54767867867868,-4.2624807
-8.5086956956957,-4.2517486
-8.469712712712715,-4.241061
-8.43072972972973,-4.230416
-8.39174674674675,-4.2198114
-8.352763763763765,-4.209249
-8.313780780780784,-4.1987233
-8.274797797797799,-4.188239
-8.235814814814816,-4.177795
-8.196831831831835,-4.1673846
-8.15784884884885,-4.1570106
-8.11886586586587,-4.146672
-8.079882882882885,-4.13637
-8.040899899899904,-4.126097
-8.001916916916919,-4.115859
-7.962933933933934,-4.1056523
-7.923950950950954,-4.0954733
-7.884967967967969,-4.085324
-7.845984984984988,-4.0752015
-7.807002002002004,-4.0651064
-7.76801901901902,-4.0550404
-7.729036036036039,-4.0449953
-7.690053053053054,-4.0349746
-7.651070070070073,-4.0249724
-7.6120870870870885,-4.0149927
-7.573104104104105,-4.0050325
-7.534121121121124,-3.995092
-7.495138138138139,-3.9851623
-7.456155155155158,-3.975251
-7.417172172172174,-3.9653547
-7.378189189189193,-3.95547
-7.3392062062062084,-3.9455936
-7.300223223223224,-3.9357271
-7.261240240240243,-3.9258664
-7.222257257257259,-3.9160142
-7.183274274274278,-3.9061646
-7.144291291291293,-3.896319
-7.105308308308309,-3.8864696
-7.066325325325328,-3.8766222
-7.027342342342344,-3.8667738
-6.988359359359363,-3.8569138
-6.949376376376378,-3.847053
-6.910393393393393,-3.8371816
-6.871410410410412,-3.8272972
-6.832427427427429,-3.8173983
-6.7934444444444475,-3.8074849
-6.754461461461463,-3.7975554
-6.715478478478483,-3.7876027
-6.676495495495498,-3.7776296
-6.637512512512513,-3.7676299
-6.598529529529532,-3.757605
-6.559546546546548,-3.7475462
-6.520563563563567,-3.7374556
-6.481580580580582,-3.72733
-6.442597597597598,-3.7171676
-6.403614614614617,-3.7069616
-6.364631631631633,-3.696712
-6.325648648648652,-3.6864138
-6.286665665665668,-3.6760666
-6.247682682682683,-3.6656632
-6.208699699699702,-3.655204
-6.169716716716717,-3.6446848
-6.130733733733736,-3.6341002
-6.0917507507507525,-3.623448
-6.052767767767771,-3.6127229
-6.013784784784788,-3.6019247
-5.974801801801803,-3.591043
-5.935818818818822,-3.5800798
-5.896835835835837,-3.5690286
-5.857852852852856,-3.5578866
-5.8188698698698715,-3.5466475
-5.779886886886887,-3.5353081
-5.740903903903907,-3.5238578
-5.701920920920922,-3.5123029
-5.662937937937941,-3.500629
-5.623954954954957,-3.488835
-5.584971971971973,-3.4769163
-5.5459889889889915,-3.4648604
-5.507006006006007,-3.4526744
-5.468023023023026,-3.4403405
-5.429040040040041,-3.4278595
-5.39005705705706,-3.4152203
-5.351074074074076,-3.402426
-5.312091091091093,-3.389457
-5.2731081081081115,-3.3763154
-5.234125125125127,-3.3629906
-5.195142142142146,-3.3494809
-5.156159159159161,-3.3357713
-5.1171761761761765,-3.3218565
-5.078193193193195,-3.307732
-5.039210210210212,-3.293386
-5.000227227227231,-3.2788117
-4.961244244244246,-3.2639987
-4.922261261261265,-3.2489407
-4.883278278278281,-3.2336247
-4.8442952952952965,-3.2180471
-4.805312312312315,-3.2021928
-4.766329329329331,-3.1860523
-4.72734634634635,-3.1696193
-4.688363363363366,-3.1528766
-4.649380380380381,-3.1358168
-4.6103973973974,-3.118426
-4.5714144144144155,-3.1006937
-4.532431431431435,-3.0826042
-4.493448448448451,-3.0641532
-4.454465465465466,-3.0453188
-4.415482482482485,-3.0260904
-4.376499499499501,-3.0064504
-4.33751651651652,-2.9863858
-4.2985335335335355,-2.9658864
-4.259550550550554,-2.944926
-4.22056756756757,-2.9234993
-4.181584584584586,-2.9015815
-4.142601601601605,-2.8791614
-4.10361861861862,-2.8562102
-4.064635635635639,-2.832717
-4.025652652652655,-2.8086603
-3.986669669669671,-2.7840216
-3.9476866866866898,-2.75878
-3.908703703703705,-2.7329106
-3.869720720720724,-2.7063916
-3.8307377377377403,-2.6792011
-3.7917547547547557,-2.6513186
-3.7527717717717746,-2.622712
-3.71378878878879,-2.5933628
-3.674805805805809,-2.5632393
-3.635822822822825,-2.5323186
-3.596839839839844,-2.5005713
-3.5578568568568594,-2.467966
-3.5188738738738747,-2.434474
-3.4798908908908937,-2.4000673
-3.44090790790791,-2.3647177
-3.401924924924929,-2.3283846
-3.362941941941944,-2.291041
-3.3239589589589595,-2.2526522
-3.2849759759759793,-2.2131884
-3.2459929929929947,-2.1726067
-3.2070100100100136,-2.1308746
-3.168027027027029,-2.0879571
-3.1290440440440452,-2.0438187
-3.090061061061064,-1.9984208
-3.0510780780780795,-1.9517273
-3.0120950950950984,-1.9036969
-2.973112112112114,-1.8542944
-2.9341291291291327,-1.8034853
-2.895146146146149,-1.7512268
-2.8561631631631643,-1.6974826
-2.8171801801801832,-1.6422153
-2.7781971971971986,-1.5853881
-2.7392142142142184,-1.5269679
-2.7002312312312338,-1.4669133
-2.661248248248249,-1.4051939
-2.622265265265268,-1.3417702
-2.5832822822822843,-1.2766217
-2.544299299299303,-1.2097073
-2.5053163163163186,-1.1410011
-2.466333333333334,-1.0704736
-2.427350350350353,-0.9981039
-2.388367367367369,-0.9238707
-2.349384384384388,-0.8477438
-2.3104014014014034,-0.76971674
-2.2714184184184223,-0.6897674
-2.2324354354354377,-0.6078946
