Potential,Flux
14.269,0.19377571
14.214423423423424,0.190583
14.159846846846847,0.18741092
14.105270270270271,0.18425515
14.050693693693693,0.18111692
13.996117117117118,0.17800295
13.94154054054054,0.17490184
13.886963963963964,0.17182383
13.832387387387387,0.16875833
13.777810810810811,0.1657187
13.723234234234233,0.16269778
13.668657657657658,0.15968753
13.614081081081082,0.15669967
13.559504504504504,0.15373036
13.504927927927929,0.15078057
13.450351351351351,0.14784615
13.395774774774775,0.14493084
13.341198198198198,0.14204115
13.286621621621622,0.1391541
13.232045045045044,0.13629282
13.177468468468469,0.13345568
13.122891891891891,0.1306251
13.068315315315315,0.12781475
13.01373873873874,0.12502433
12.959162162162162,0.12225104
12.904585585585586,0.11949627
12.850009009009009,0.116750404
12.795432432432433,0.11403299
12.740855855855855,0.11131923
12.68627927927928,0.10863737
12.631702702702702,0.10596348
12.577126126126126,0.103301115
12.522549549549549,0.100663744
12.467972972972973,0.09803925
12.413396396396397,0.0954285
12.35881981981982,0.09283472
12.304243243243244,0.09026286
12.249666666666666,0.087694064
12.19509009009009,0.08514745
12.140513513513513,0.08261395
12.085936936936937,0.080101885
12.03136036036036,0.07759586
11.976783783783784,0.07510764
11.922207207207206,0.072629444
11.86763063063063,0.07016868
11.813054054054053,0.067718856
11.758477477477477,0.06528676
11.703900900900901,0.06286585
11.649324324324324,0.06046976
11.594747747747748,0.058071792
11.54017117117117,0.055698346
11.485594594594595,0.05332984
11.431018018018019,0.050972987
11.376441441441441,0.048625607
11.321864864864864,0.046296168
11.267288288288288,0.04397932
11.212711711711712,0.04166366
11.158135135135135,0.039373618
11.103558558558557,0.03708419
11.048981981981981,0.034808923
10.994405405405406,0.0325466
10.939828828828828,0.030288408
10.885252252252252,0.028050315
10.830675675675675,0.025806958
10.776099099099099,0.023588577
10.721522522522521,0.02136545
10.666945945945946,0.019161392
10.612369369369368,0.016958741
10.557792792792792,0.014767153
10.503216216216217,0.012587546
10.448639639639639,0.010412025
10.394063063063063,0.008247444
10.339486486486486,0.0060822954
10.28490990990991,0.0039313724
10.230333333333334,0.0017794211
10.175756756756757,-0.00035975687
10.121180180180179,-0.0024997508
10.066603603603603,-0.0046273195
10.012027027027028,-0.0067491448
9.95745045045045,-0.00886577
9.902873873873872,-0.0109804375
9.848297297297297,-0.013093413
9.79372072072072,-0.015201786
9.739144144144143,-0.017300157
9.684567567567566,-0.019400377
9.62999099099099,-0.021497086
9.575414414414414,-0.023589741
9.520837837837838,-0.025681918
9.46626126126126,-0.027773103
9.411684684684683,-0.029858112
9.357108108108108,-0.031946655
9.302531531531532,-0.034029804
9.247954954954956,-0.03612091
9.193378378378377,-0.038206793
9.138801801801801,-0.040292643
9.084225225225225,-0.042378843
9.029648648648648,-0.044470474
8.975072072072072,-0.046560854
8.920495495495494,-0.04865719
8.865918918918918,-0.050755452
8.811342342342343,-0.052849915
8.756765765765765,-0.054956883
8.702189189189188,-0.057059202
8.647612612612612,-0.059178818
8.593036036036036,-0.061299767
8.538459459459459,-0.06342229
8.483882882882881,-0.065553494
8.429306306306305,-0.06769956
8.37472972972973,-0.069846176
8.320153153153154,-0.07200426
8.265576576576576,-0.07416953
8.210999999999999,-0.07634885
8.156423423423423,-0.07853505
8.101846846846847,-0.08074233
8.04727027027027,-0.08296018
7.992693693693693,-0.0851856
7.938117117117116,-0.08742741
7.88354054054054,-0.0896964
7.828963963963963,-0.09197461
7.774387387387387,-0.09427328
7.71981081081081,-0.096581995
7.665234234234233,-0.09892268
7.610657657657657,-0.1012818
7.55608108108108,-0.10366827
7.501504504504504,-0.106071964
7.446927927927927,-0.10850876
7.392351351351351,-0.11097224
7.337774774774774,-0.11346126
7.283198198198197,-0.115986854
7.228621621621621,-0.118543014
7.174045045045044,-0.12113853
7.119468468468468,-0.123773344
7.064891891891891,-0.12643807
7.010315315315314,-0.12915622
6.955738738738738,-0.13191406
6.901162162162161,-0.13472326
6.846585585585585,-0.13757443
6.792009009009008,-0.14049298
6.737432432432431,-0.14345522
6.682855855855855,-0.14648384
6.628279279279278,-0.1495704
6.573702702702702,-0.15273483
6.5191261261261255,-0.15596122
6.464549549549548,-0.1592608
6.409972972972972,-0.16264534
6.3553963963963955,-0.16610725
6.300819819819819,-0.16966842
6.246243243243242,-0.17330882
6.191666666666666,-0.17706129
6.137090090090089,-0.18091501
6.082513513513513,-0.18488137
6.0279369369369356,-0.18895994
5.97336036036036,-0.19317274
5.918783783783782,-0.19750357
5.8642072072072065,-0.20197639
5.809630630630629,-0.20660664
5.755054054054053,-0.21137764
5.700477477477477,-0.21632317
5.6459009009009,-0.22143309
5.591324324324322,-0.22672556
5.5367477477477465,-0.23220582
5.482171171171169,-0.23789695
5.427594594594593,-0.24380328
5.373018018018017,-0.24993093
5.318441441441442,-0.25629988
5.263864864864864,-0.26291648
5.2092882882882865,-0.2697924
5.154711711711711,-0.27695343
5.100135135135133,-0.2843991
5.045558558558557,-0.29215088
4.990981981981982,-0.30022982
4.936405405405404,-0.30864736
4.8818288288288265,-0.31741893
4.827252252252251,-0.3265634
4.772675675675675,-0.33609536
4.718099099099097,-0.3460484
4.663522522522522,-0.35642523
4.608945945945946,-0.36725187
4.5543693693693665,-0.37855196
4.499792792792791,-0.39034426
4.445216216216215,-0.4026563
4.390639639639637,-0.41550273
4.336063063063062,-0.42891243
4.281486486486486,-0.4429189
4.22690990990991,-0.4575295
4.172333333333331,-0.4727764
4.117756756756755,-0.4886939
4.063180180180179,-0.5052975
4.008603603603602,-0.5226283
3.954027027027026,-0.54069334
3.89945045045045,-0.5595476
3.844873873873871,-0.5792048
3.790297297297295,-0.5996986
3.7357207207207193,-0.6210545
3.6811441441441435,-0.6433114
3.626567567567566,-0.6664996
3.57199099099099,-0.690645
3.5174144144144126,-0.7157898
3.462837837837835,-0.7419614
3.4082612612612593,-0.76919603
3.3536846846846835,-0.79752445
3.2991081081081077,-0.82698214
3.24453153153153,-0.8576105
3.1899549549549526,-0.88943714
3.135378378378377,-0.92249584
3.0808018018017993,-0.9568406
3.0262252252252235,-0.9924906
2.9716486486486478,-1.0294906
2.917072072072072,-1.0678786
2.8624954954954944,-1.1076928
2.807918918918917,-1.1489666
2.753342342342341,-1.1917473
2.6987657657657635,-1.2360657
2.6441891891891878,-1.2819657
2.589612612612612,-1.3294792
2.5350360360360344,-1.3786578
2.480459459459457,-1.4295231
2.425882882882881,-1.4821181
2.3713063063063053,-1.5364825
2.316729729729728,-1.5926492
2.262153153153152,-1.6506436
2.2075765765765762,-1.7105008
2.152999999999997,-1.7722515
2.098423423423421,-1.8359231
2.0438468468468454,-1.9015265
1.9892702702702678,-1.9690921
1.934693693693692,-2.0386364
1.8801171171171163,-2.1101608
1.8255405405405387,-2.1836727
1.7709639639639612,-2.2591794
1.7163873873873854,-2.3366573
1.6618108108108096,-2.4161093
1.607234234234232,-2.4975152
1.5526576576576563,-2.5808346
1.4980810810810805,-2.6660457
1.4435045045045012,-2.7530978
1.3889279279279254,-2.841948
1.3343513513513496,-2.93253
1.2797747747747739,-3.0247834
1.2251981981981963,-3.1186254
1.1706216216216205,-3.2139778
1.116045045045043,-3.3107474
1.0614684684684654,-3.4088364
1.0068918918918897,-3.5081308
0.9523153153153139,-3.6085203
0.8977387387387381,-3.70989
0.8431621621621606,-3.8121066
0.788585585585583,-3.9150383
0.7340090090090072,-4.0185466
0.6794324324324297,-4.1225014
0.6248558558558539,-4.226734
0.5702792792792781,-4.331104
0.5157027027027024,-4.4354687
0.461126126126123,-4.5396585
0.40654954954954725,-4.6435385
0.3519729729729715,-4.74693
0.2973963963963939,-4.849685
0.24281981981981815,-4.9516473
0.18824324324324238,-5.0526752
0.13366666666666482,-5.1525817
0.07909009009008727,-5.251225
0.024513513513511498,-5.348472
-0.030063063063064277,-5.444153
-0.08463963963964183,-5.538138
-0.1392162162162176,-5.6302624
-0.19379279279279338,-5.720398
-0.2483693693693727,-5.808426
-0.3029459459459485,-5.894183
-0.35752252252252426,-5.9775734
-0.4120990990991018,-6.058458
-0.4666756756756776,-6.1367407
-0.5212522522522534,-6.212282
-0.5758288288288309,-6.285007
-0.6304054054054085,-6.3548174
-0.6849819819819842,-6.421615
-0.73955855855856,-6.4853435
-0.7941351351351376,-6.5459027
-0.8487117117117133,-6.6032495
-0.9032882882882909,-6.657315
-0.9578648648648684,-6.7080812
-1.0124414414414442,-6.75549
-1.06701801801802,-6.799517
-1.1215945945945958,-6.8401465
-1.1761711711711733,-6.877385
-1.230747747747749,-6.911215
-1.2853243243243266,-6.9416614
-1.3399009009009042,-6.9687395
-1.39447747747748,-6.9924817
-1.4490540540540557,-7.0129223
-1.5036306306306315,-7.0301137
-1.558207207207209,-7.044101
-1.6127837837837866,-7.0549498
-1.6673603603603624,-7.0627236
-1.72193693693694,-7.067511
-1.7765135135135157,-7.069379
-1.8310900900900915,-7.068426
-1.8856666666666673,-7.0647197
-1.9402432432432466,-7.0583763
-1.9948198198198224,-7.049484
-2.049396396396398,-7.038153
-2.103972972972974,-7.0244856
-2.1585495495495497,-7.0085797
-2.213126126126129,-6.9905367
-2.267702702702705,-6.9704766
-2.3222792792792806,-6.9485106
-2.37685585585586,-6.924726
-2.4314324324324357,-6.899247
-2.4860090090090115,-6.872177
-2.5405855855855872,-6.8436165
-2.595162162162163,-6.8136787
-2.6497387387387423,-6.7824492
-2.704315315315318,-6.7500315
-2.758891891891894,-6.716516
-2.8134684684684697,-6.682012
-2.8680450450450454,-6.646597
-2.9226216216216248,-6.6103654
-2.9771981981982005,-6.573379
-3.0317747747747763,-6.5357494
-3.0863513513513556,-6.497549
-3.1409279279279314,-6.4588175
-3.195504504504507,-6.4196706
-3.250081081081083,-6.3801455
-3.3046576576576623,-6.340305
-3.359234234234238,-6.30023
-3.413810810810814,-6.259963
-3.4683873873873896,-6.219562
-3.5229639639639654,-6.179069
-3.577540540540541,-6.1385293
-3.632117117117117,-6.09801
-3.6866936936936963,-6.0575294
-3.741270270270272,-6.017144
-3.7958468468468514,-5.976865
-3.850423423423427,-5.936742
-3.905000000000003,-5.8968034
-3.9595765765765787,-5.857077
-4.014153153153158,-5.817585
-4.068729729729734,-5.778354
-4.12330630630631,-5.739408
-4.177882882882885,-5.7007627
-4.232459459459461,-5.6624346
-4.287036036036037,-5.624438
-4.341612612612613,-5.5867853
-4.396189189189192,-5.5494995
-4.450765765765768,-5.5125985
-4.505342342342347,-5.476055
-4.559918918918923,-5.4399176
-4.614495495495499,-5.4041657
-4.669072072072074,-5.36883
-4.72364864864865,-5.333897
-4.7782252252252295,-5.299366
-4.832801801801805,-5.2652674
-4.887378378378381,-5.2315745
-4.941954954954957,-5.198295
-4.996531531531533,-5.165448
-5.051108108108108,-5.1330233
-5.105684684684684,-5.1010184
-5.160261261261267,-5.069426
-5.214837837837843,-5.038261
-5.269414414414419,-5.007497
-5.323990990990994,-4.977157
-5.37856756756757,-4.9472322
-5.433144144144146,-4.9177017
-5.487720720720725,-4.8885884
-5.542297297297301,-4.859873
-5.596873873873877,-4.8315606
-5.651450450450453,-4.803641
-5.706027027027028,-4.776115
-5.760603603603604,-4.748971
-5.81518018018018,-4.722206
-5.869756756756763,-4.695833
-5.924333333333339,-4.6698246
-5.978909909909914,-4.6441827
-6.03348648648649,-4.6188965
-6.088063063063066,-4.593974
-6.142639639639642,-4.5694156
-6.197216216216217,-4.5451927
-6.251792792792797,-4.521314
-6.3063693693693725,-4.497784
-6.360945945945948,-4.474579
-6.415522522522524,-4.451702
-6.4700990990991,-4.429156
-6.524675675675679,-4.406915
-6.5792522522522585,-4.3849936
-6.633828828828834,-4.363396
-6.68840540540541,-4.3420806
-6.742981981981986,-4.3210716
-6.797558558558562,-4.300355
-6.852135135135137,-4.2799273
-6.906711711711713,-4.2597756
-6.961288288288289,-4.239899
-7.015864864864868,-4.2203083
-7.070441441441444,-4.2009854
-7.12501801801802,-4.1819153
-7.179594594594596,-4.1631174
-7.234171171171175,-4.1445723
-7.288747747747751,-4.1262655
-7.34332432432433,-4.1081977
-7.397900900900906,-4.090383
-7.452477477477482,-4.0728054
-7.507054054054057,-4.0554547
-7.561630630630633,-4.0383353
-7.616207207207209,-4.021435
-7.670783783783785,-4.004752
-7.725360360360364,-3.9882772
-7.77993693693694,-3.9720316
-7.8345135135135155,-3.955967
-7.889090090090095,-3.9401278
-7.943666666666671,-3.924466
-7.998243243243246,-3.9090087
-8.052819819819822,-3.8937376
-8.107396396396402,-3.8786597
-8.161972972972977,-3.8637593
-8.216549549549553,-3.8490465
-8.271126126126129,-3.8345008
-8.325702702702705,-3.820116
-8.38027927927928,-3.805926
-8.434855855855856,-3.7918813
-8.489432432432436,-3.7780073
-8.544009009009011,-3.7642891
-8.59858558558559,-3.7507284
-8.653162162162166,-3.7373195
-8.707738738738742,-3.7240639
-8.762315315315318,-3.7109568
-8.816891891891897,-3.6979954
-8.871468468468473,-3.6851687
-8.926045045045049,-3.6724937
-8.980621621621625,-3.6599422
-9.0351981981982,-3.6475391
-9.089774774774776,-3.635253
-9.144351351351352,-3.6231263
-9.198927927927931,-3.6110876
-9.25350450450451,-3.599203
-9.308081081081086,-3.5874274
-9.362657657657662,-3.5757754
-9.417234234234238,-3.5642383
-9.471810810810814,-3.5528219
-9.52638738738739,-3.541533
-9.580963963963969,-3.5303497
-9.635540540540545,-3.5192704
-9.69011711711712,-3.5083187
-9.744693693693696,-3.4974608
-9.799270270270272,-3.4867172
-9.853846846846848,-3.4760787
-9.908423423423423,-3.4655368
-9.963000000000006,-3.4551115
-10.017576576576582,-3.4447703
-10.072153153153158,-3.434545
-10.126729729729734,-3.424401
-10.18130630630631,-3.4143627
-10.235882882882885,-3.4044218
-10.290459459459464,-3.3945787
-10.34503603603604,-3.3848138
-10.399612612612616,-3.375161
-10.454189189189192,-3.3655808
-10.508765765765768,-3.3560953
-10.563342342342343,-3.3467007
-10.617918918918923,-3.3373854
-10.672495495495502,-3.3281543
-10.727072072072078,-3.319011
-10.781648648648654,-3.3099525
-10.83622522522523,-3.3009682
-10.890801801801805,-3.2920654
-10.945378378378381,-3.2832468
-10.999954954954957,-3.2745051
-11.054531531531536,-3.2658339
-11.109108108108112,-3.2572422
-11.163684684684688,-3.2487218
-11.218261261261263,-3.2402782
-11.272837837837839,-3.2318792
-11.327414414414418,-3.2235706
-11.381990990990998,-3.2153256
-11.436567567567574,-3.207154
-11.49114414414415,-3.199033
-11.545720720720725,-3.1909783
-11.6002972972973,-3.1829982
-11.654873873873877,-3.1750658
-11.709450450450452,-3.1671872
-11.764027027027032,-3.1593766
-11.818603603603608,-3.1516263
-11.873180180180183,-3.143927
-11.927756756756759,-3.1362681
-11.982333333333338,-3.1286755
-12.036909909909914,-3.1211345
-12.09148648648649,-3.1136444
-12.14606306306307,-3.1061819
-12.200639639639645,-3.0988064
-12.25521621621622,-3.0914462
-12.309792792792797,-3.084148
-12.364369369369372,-3.076887
-12.418945945945948,-3.069675
-12.473522522522524,-3.0625024
-12.528099099099103,-3.0553794
-12.582675675675679,-3.0482924
-12.637252252252255,-3.0412576
-12.691828828828834,-3.0342624
-12.74640540540541,-3.0273032
-12.800981981981986,-3.0203888
-12.855558558558561,-3.013516
-12.91013513513514,-3.006683
-12.964711711711717,-2.9998915
-12.964711711711713,-2.9931493
-12.910135135135137,-2.9864511
-12.85555855855856,-2.9797983
-12.800981981981984,-2.9731615
-12.746405405405408,-2.9665794
-12.69182882882883,-2.9600465
-12.637252252252251,-2.9535553
-12.582675675675675,-2.9470954
-12.528099099099098,-2.9406931
-12.473522522522522,-2.9343312
-12.418945945945946,-2.928005
-12.36436936936937,-2.9217138
-12.309792792792793,-2.9154885
-12.255216216216217,-2.909305
-12.200639639639641,-2.903164
-12.146063063063064,-2.8970637
-12.091486486486488,-2.8909926
-12.036909909909912,-2.884991
-11.982333333333337,-2.8790221
-11.927756756756756,-2.873093
-11.87318018018018,-2.8672037
-11.818603603603604,-2.861373
-11.764027027027026,-2.8555756
-11.70945045045045,-2.8498166
-11.654873873873875,-2.8441238
-11.600297297297299,-2.838437
-11.545720720720722,-2.8328168
-11.491144144144146,-2.827212
-11.43656756756757,-2.8216784
-11.381990990990992,-2.8161669
-11.327414414414417,-2.8106916
-11.272837837837837,-2.805265
-11.21826126126126,-2.7998514
-11.163684684684684,-2.794492
-11.109108108108108,-2.789149
-11.05453153153153,-2.7838466
-10.999954954954955,-2.7785776
-10.94537837837838,-2.77334
-10.890801801801803,-2.7681198
-10.836225225225226,-2.7629359
-10.78164864864865,-2.7577813
-10.727072072072074,-2.7526574
-10.672495495495497,-2.7475305
-10.617918918918921,-2.7424402
-10.563342342342342,-2.7373762
-10.508765765765766,-2.7323291
-10.454189189189188,-2.7272928
-10.399612612612612,-2.7222843
-10.345036036036037,-2.7172723
-10.29045945945946,-2.712301
-10.235882882882883,-2.707323
-10.181306306306308,-2.7023695
-10.126729729729732,-2.6974206
-10.072153153153154,-2.6924748
-10.017576576576579,-2.6875477
-9.963000000000003,-2.6826248
-9.908423423423422,-2.67771
-9.853846846846846,-2.6727998
-9.79927027027027,-2.6678843
-9.744693693693693,-2.662979
-9.690117117117117,-2.65808
-9.635540540540541,-2.6531768
-9.580963963963963,-2.6482685
-9.526387387387388,-2.6433723
-9.471810810810812,-2.6384647
-9.417234234234236,-2.6335537
-9.36265765765766,-2.6286504
-9.308081081081083,-2.6237307
-9.253504504504507,-2.6188178
-9.198927927927926,-2.6138904
-9.14435135135135,-2.6089609
-9.089774774774774,-2.6040199
-9.035198198198199,-2.599074
-8.980621621621621,-2.5941339
-8.926045045045045,-2.5891714
-8.871468468468468,-2.584193
-8.816891891891892,-2.579209
-8.762315315315316,-2.574216
-8.70773873873874,-2.5692103
-8.653162162162165,-2.5641918
-8.598585585585589,-2.5591557
-8.544009009009008,-2.554107
-8.48943243243243,-2.5490537
-8.434855855855854,-2.5439725
-8.380279279279279,-2.538884
-8.325702702702703,-2.5337722
-8.271126126126127,-2.5286388
-8.21654954954955,-2.5234938
-8.161972972972974,-2.5183175
-8.107396396396396,-2.513123
-8.05281981981982,-2.5079174
-7.998243243243245,-2.5026853
-7.943666666666668,-2.4974139
-7.889090090090092,-2.492136
-7.834513513513512,-2.4868202
-7.779936936936935,-2.4814806
-7.72536036036036,-2.4761114
-7.670783783783783,-2.4707074
-7.616207207207207,-2.465275
-7.5616306306306305,-2.459804
-7.507054054054055,-2.4542973
-7.452477477477478,-2.448764
-7.397900900900901,-2.443171
-7.343324324324326,-2.4375477
-7.288747747747749,-2.4318774
-7.234171171171173,-2.4261634
-7.179594594594593,-2.420398
-7.125018018018016,-2.414583
-7.0704414414414405,-2.4087152
-7.015864864864864,-2.4027905
-6.961288288288288,-2.3968065
-6.906711711711711,-2.3907523
-6.852135135135135,-2.3846476
-6.797558558558559,-2.3784587
-6.742981981981982,-2.3722062
-6.6884054054054065,-2.365867
-6.63382882882883,-2.359458
-6.579252252252254,-2.3529615
-6.524675675675677,-2.3463783
-6.470099099099097,-2.3396916
-6.415522522522521,-2.3329194
-6.360945945945945,-2.3260322
-6.306369369369368,-2.319048
-6.251792792792792,-2.3119342
-6.197216216216216,-2.304716
-6.14263963963964,-2.2973614
-6.088063063063063,-2.2898726
-6.033486486486487,-2.2822485
-5.978909909909911,-2.2744746
-5.924333333333335,-2.2665508
-5.869756756756758,-2.2584631
-5.815180180180178,-2.2502072
-5.7606036036036015,-2.2417674
-5.706027027027026,-2.2331514
-5.651450450450449,-2.2243297
-5.596873873873873,-2.2153025
-5.542297297297297,-2.2060587
-5.487720720720721,-2.1965978
-5.433144144144144,-2.186889
-5.378567567567568,-2.1769338
-5.323990990990992,-2.1667202
-5.269414414414415,-2.1562347
-5.214837837837839,-2.145465
-5.160261261261263,-2.1343834
-5.105684684684682,-2.123001
-5.051108108108107,-2.1112838
-4.99653153153153,-2.0992272
-4.941954954954953,-2.0868132
-4.8873783783783775,-2.0740213
-4.832801801801802,-2.060838
-4.778225225225226,-2.04725
-4.723648648648648,-2.0332289
-4.669072072072073,-2.0187654
-4.614495495495497,-2.0038276
-4.559918918918919,-1.9884073
-4.5053423423423435,-1.9724803
-4.450765765765768,-1.9560262
-4.396189189189192,-1.9390175
-4.341612612612614,-1.9214367
-4.287036036036039,-1.9032536
-4.232459459459463,-1.8844477
-4.177882882882885,-1.8649925
-4.1233063063063025,-1.8448594
-4.068729729729725,-1.8240259
-4.014153153153149,-1.8024551
-3.9595765765765734,-1.7801251
