Potential,Flux
14.269,0.20521033
14.214423423423424,0.20233122
14.159846846846847,0.19942681
14.105270270270271,0.19649784
14.050693693693693,0.19353423
13.996117117117118,0.19054733
13.94154054054054,0.18752398
13.886963963963964,0.18447782
13.832387387387387,0.18139955
13.777810810810811,0.1782957
13.723234234234233,0.17515233
13.668657657657658,0.17198975
13.614081081081082,0.16880235
13.559504504504504,0.165575
13.504927927927929,0.1623304
13.450351351351351,0.15905908
13.395774774774775,0.15575825
13.341198198198198,0.15243953
13.286621621621622,0.14909543
13.232045045045044,0.14573084
13.177468468468469,0.14234751
13.122891891891891,0.13894549
13.068315315315315,0.13552515
13.01373873873874,0.13209331
12.959162162162162,0.12864849
12.904585585585586,0.1251928
12.850009009009009,0.121722974
12.795432432432433,0.11825128
12.740855855855855,0.11476826
12.68627927927928,0.1112901
12.631702702702702,0.10780558
12.577126126126126,0.10432342
12.522549549549549,0.10084667
12.467972972972973,0.09737391
12.413396396396397,0.09390445
12.35881981981982,0.09045102
12.304243243243244,0.087005585
12.249666666666666,0.083570205
12.19509009009009,0.08015624
12.140513513513513,0.0767585
12.085936936936937,0.07337569
12.03136036036036,0.070018195
11.976783783783784,0.06667887
11.922207207207208,0.06336301
11.86763063063063,0.060071923
11.813054054054053,0.056810785
11.758477477477477,0.053573683
11.703900900900901,0.05036478
11.649324324324324,0.04718319
11.594747747747748,0.044040225
11.54017117117117,0.04091853
11.485594594594595,0.037834205
11.431018018018017,0.03477712
11.376441441441441,0.031750266
11.321864864864864,0.02876158
11.267288288288288,0.025803797
11.212711711711712,0.022878319
11.158135135135135,0.019983437
11.103558558558557,0.01712475
11.048981981981981,0.014292998
10.994405405405406,0.0114959255
10.939828828828828,0.008731845
10.885252252252252,0.0059942976
10.830675675675675,0.003291185
10.776099099099099,0.00062324584
10.721522522522523,-0.00202269
10.666945945945946,-0.004631812
10.612369369369368,-0.0072168084
10.557792792792792,-0.009776015
10.503216216216217,-0.012305268
10.448639639639639,-0.01480567
10.394063063063061,-0.017284738
10.339486486486486,-0.01973504
10.28490990990991,-0.022161879
10.230333333333334,-0.024564316
10.175756756756757,-0.026943255
10.121180180180179,-0.029296737
10.066603603603603,-0.031633306
10.012027027027028,-0.03394694
9.95745045045045,-0.036239397
9.902873873873872,-0.03851679
9.848297297297297,-0.040769756
9.79372072072072,-0.043007072
9.739144144144145,-0.045223862
9.684567567567566,-0.047427252
9.62999099099099,-0.04961208
9.575414414414414,-0.051780906
9.520837837837838,-0.0539329
9.466261261261263,-0.05607283
9.411684684684683,-0.058201633
9.357108108108108,-0.06031375
9.302531531531532,-0.0624131
9.247954954954956,-0.06449735
9.193378378378377,-0.066575505
9.138801801801801,-0.06863483
9.084225225225225,-0.07068924
9.02964864864865,-0.07273011
8.97507207207207,-0.0747662
8.920495495495494,-0.07678686
8.865918918918918,-0.07879947
8.811342342342343,-0.08080511
8.756765765765767,-0.08280377
8.702189189189188,-0.08479388
8.647612612612612,-0.086776175
8.593036036036036,-0.08875616
8.53845945945946,-0.09072755
8.483882882882881,-0.09269037
8.429306306306305,-0.094650276
8.37472972972973,-0.09660962
8.320153153153154,-0.09856159
8.265576576576576,-0.10051123
8.210999999999999,-0.102455966
8.156423423423423,-0.10440393
8.101846846846847,-0.10634727
8.047270270270271,-0.10829363
7.992693693693694,-0.11023807
7.938117117117116,-0.11218551
7.88354054054054,-0.11413258
7.828963963963964,-0.11608431
7.774387387387387,-0.11803518
7.71981081081081,-0.11999671
7.665234234234234,-0.121964335
7.610657657657657,-0.123932555
7.55608108108108,-0.12591632
7.501504504504505,-0.12790506
7.446927927927927,-0.12990658
7.39235135135135,-0.13191889
7.337774774774775,-0.13394217
7.283198198198198,-0.13598093
7.22862162162162,-0.13804133
7.174045045045045,-0.14011657
7.119468468468468,-0.14220877
7.064891891891891,-0.14432408
7.0103153153153155,-0.14646412
6.955738738738738,-0.14862984
6.901162162162161,-0.15082408
6.846585585585585,-0.15304413
6.792009009009009,-0.1553021
6.737432432432431,-0.157594
6.682855855855855,-0.15992182
6.628279279279279,-0.16228846
6.573702702702702,-0.16470233
6.519126126126125,-0.16716316
6.464549549549549,-0.16967206
6.409972972972972,-0.17223427
6.3553963963963955,-0.17485543
6.30081981981982,-0.17753698
6.246243243243242,-0.18028325
6.191666666666666,-0.18310224
6.137090090090091,-0.18599056
6.082513513513513,-0.18896013
6.0279369369369356,-0.19201607
5.97336036036036,-0.19516157
5.918783783783784,-0.19840056
5.8642072072072065,-0.2017421
5.809630630630629,-0.20518807
5.755054054054053,-0.20875077
5.700477477477477,-0.21242903
5.6459009009009,-0.21624023
5.591324324324324,-0.22018476
5.5367477477477465,-0.22427367
5.482171171171171,-0.2285113
5.427594594594593,-0.23291026
5.373018018018016,-0.23747827
5.318441441441442,-0.2422234
5.263864864864864,-0.24715832
5.209288288288288,-0.2522867
5.154711711711711,-0.25763038
5.100135135135133,-0.2631906
5.045558558558557,-0.26898345
4.990981981981982,-0.27502018
4.936405405405406,-0.28131384
4.881828828828828,-0.28787464
4.827252252252251,-0.2947188
4.772675675675675,-0.30185753
4.718099099099097,-0.30931276
4.663522522522523,-0.31708726
4.608945945945946,-0.32520187
4.554369369369368,-0.33367777
4.4997927927927925,-0.34252346
4.445216216216215,-0.35176057
4.390639639639637,-0.36140513
4.336063063063062,-0.37147245
4.281486486486486,-0.38198325
4.22690990990991,-0.39295587
4.172333333333333,-0.4044087
4.117756756756755,-0.41636887
4.063180180180179,-0.42884472
4.008603603603602,-0.44186637
3.9540270270270277,-0.45544598
3.89945045045045,-0.46961346
3.8448738738738726,-0.48438868
3.790297297297297,-0.49979427
3.7357207207207193,-0.51585126
3.6811441441441417,-0.53258353
3.626567567567566,-0.5500165
3.57199099099099,-0.5681739
3.5174144144144144,-0.587082
3.462837837837837,-0.606767
3.4082612612612593,-0.62724864
3.3536846846846835,-0.6485585
3.299108108108106,-0.67072093
3.244531531531532,-0.6937666
3.1899549549549544,-0.71772027
3.135378378378377,-0.7426053
3.080801801801801,-0.7684545
3.0262252252252235,-0.79529804
2.9716486486486478,-0.82315516
2.91707207207207,-0.8520665
2.8624954954954944,-0.88205177
2.8079189189189186,-0.91314435
2.753342342342341,-0.94536626
2.6987657657657635,-0.97875506
2.6441891891891878,-1.0133336
2.58961261261261,-1.0491313
2.5350360360360362,-1.0861742
2.4804594594594587,-1.124493
2.425882882882881,-1.1641045
2.3713063063063053,-1.2050418
2.316729729729728,-1.2473279
2.262153153153152,-1.2909832
2.2075765765765762,-1.33603
2.1529999999999987,-1.3824929
2.098423423423423,-1.4303741
2.0438468468468454,-1.4797031
1.9892702702702696,-1.530484
1.934693693693692,-1.5827379
1.8801171171171145,-1.6364574
1.8255405405405405,-1.6916512
1.770963963963963,-1.7483183
1.7163873873873872,-1.8064547
1.6618108108108096,-1.8660539
1.607234234234232,-1.927093
1.5526576576576563,-1.9895619
1.4980810810810805,-2.0534368
1.443504504504503,-2.1186857
1.3889279279279272,-2.1852756
1.3343513513513496,-2.253162
1.2797747747747739,-2.3222973
1.2251981981981963,-2.3926296
1.1706216216216205,-2.4641013
1.1160450450450448,-2.5366344
1.0614684684684672,-2.6101635
1.0068918918918914,-2.6846044
0.9523153153153139,-2.7598681
0.8977387387387363,-2.8358607
0.8431621621621606,-2.9124775
0.7885855855855848,-2.98961
0.734009009009009,-3.067151
0.6794324324324315,-3.144965
0.6248558558558539,-3.2229402
0.5702792792792781,-3.3009336
0.5157027027027006,-3.378816
0.4611261261261266,-3.4564502
0.406549549549549,-3.5336885
0.3519729729729715,-3.610389
0.2973963963963957,-3.6864045
0.24281981981981815,-3.7616026
0.1882432432432406,-3.8358269
0.13366666666666482,-3.9089394
0.07909009009008905,-3.980804
0.024513513513513274,-4.0512857
-0.030063063063064277,-4.1202617
-0.08463963963964183,-4.187601
-0.1392162162162176,-4.25319
-0.19379279279279515,-4.3169265
-0.24836936936936915,-4.378698
-0.3029459459459467,-4.438425
-0.35752252252252426,-4.4960165
-0.41209909909910003,-4.551401
-0.4666756756756776,-4.604509
-0.5212522522522551,-4.655289
-0.5758288288288309,-4.703687
-0.6304054054054067,-4.7496657
-0.6849819819819825,-4.7931924
-0.73955855855856,-4.834238
-0.7941351351351376,-4.8727903
-0.8487117117117133,-4.908827
-0.9032882882882909,-4.942348
-0.9578648648648649,-4.973346
-1.0124414414414424,-5.0018277
-1.06701801801802,-5.0278015
-1.1215945945945958,-5.051278
-1.1761711711711733,-5.07228
-1.2307477477477509,-5.090815
-1.2853243243243249,-5.1069202
-1.3399009009009024,-5.1206117
-1.3944774774774782,-5.1319304
-1.4490540540540557,-5.140904
-1.5036306306306333,-5.1475835
-1.558207207207209,-5.1520047
-1.6127837837837866,-5.1542206
-1.6673603603603606,-5.1542783
-1.7219369369369382,-5.152233
-1.7765135135135157,-5.1481547
-1.8310900900900915,-5.142083
-1.8856666666666673,-5.134113
-1.9402432432432466,-5.124298
-1.9948198198198188,-5.112724
-2.049396396396398,-5.099459
-2.103972972972974,-5.084585
-2.1585495495495497,-5.068185
-2.213126126126129,-5.050344
-2.267702702702705,-5.0311484
-2.3222792792792806,-5.010673
-2.3768558558558563,-4.9890127
-2.431432432432432,-4.9662557
-2.4860090090090115,-4.9424906
-2.5405855855855872,-4.9177885
-2.595162162162163,-4.8922453
-2.6497387387387423,-4.8659353
-2.7043153153153145,-4.8389454
-2.758891891891894,-4.811351
-2.8134684684684697,-4.783223
-2.8680450450450454,-4.754628
-2.9226216216216248,-4.7256393
-2.9771981981982005,-4.6963263
-3.0317747747747763,-4.666738
-3.086351351351352,-4.6369343
-3.140927927927928,-4.6069674
-3.195504504504507,-4.576892
-3.250081081081083,-4.54674
-3.3046576576576587,-4.5165725
-3.359234234234238,-4.4864106
-3.413810810810814,-4.456305
-3.4683873873873896,-4.426258
-3.522963963963969,-4.396326
-3.577540540540541,-4.3665314
-3.632117117117117,-4.3368926
-3.6866936936936927,-4.307422
-3.741270270270272,-4.2781377
-3.795846846846848,-4.24907
-3.8504234234234236,-4.2202234
-3.905000000000003,-4.191614
-3.9595765765765787,-4.1632476
-4.0141531531531545,-4.1351438
-4.068729729729734,-4.1073008
-4.12330630630631,-4.0797253
-4.177882882882885,-4.0524282
-4.232459459459465,-4.025414
-4.287036036036037,-3.998685
-4.341612612612613,-3.9722464
-4.396189189189188,-3.9461052
-4.450765765765768,-3.920253
-4.5053423423423435,-3.8946996
-4.559918918918919,-3.8694391
-4.614495495495499,-3.8444886
-4.669072072072074,-3.8198352
-4.72364864864865,-3.795485
-4.7782252252252295,-3.7714257
-4.832801801801805,-3.7476742
-4.887378378378381,-3.7242174
-4.941954954954953,-3.7010505
-4.996531531531533,-3.6782012
-5.051108108108108,-3.6556318
-5.105684684684684,-3.6333666
-5.1602612612612635,-3.6113963
-5.214837837837839,-3.5897143
-5.269414414414415,-3.5683222
-5.323990990990994,-3.5472026
-5.37856756756757,-3.5263934
-5.433144144144146,-3.5058568
-5.487720720720725,-3.4856007
-5.542297297297301,-3.4656165
-5.596873873873877,-3.4459245
-5.651450450450449,-3.4264956
-5.706027027027028,-3.407335
-5.760603603603604,-3.3884583
-5.81518018018018,-3.3698394
-5.869756756756759,-3.351484
-5.924333333333335,-3.3333862
-5.978909909909911,-3.3155482
-6.03348648648649,-3.2979634
-6.088063063063066,-3.2806349
-6.142639639639642,-3.2635443
-6.197216216216221,-3.2467084
-6.251792792792797,-3.2301097
-6.3063693693693725,-3.213752
-6.360945945945945,-3.19763
-6.415522522522524,-3.1817436
-6.4700990990991,-3.1660814
-6.524675675675676,-3.1506412
-6.579252252252255,-3.1354294
-6.633828828828831,-3.1204374
-6.6884054054054065,-3.105657
-6.742981981981986,-3.0910897
-6.797558558558562,-3.0767417
-6.852135135135137,-3.0625799
-6.906711711711717,-3.0486412
-6.9612882882882925,-3.0348928
-7.015864864864868,-3.0213394
-7.0704414414414405,-3.0079875
-7.12501801801802,-2.9948237
-7.179594594594596,-2.981846
-7.234171171171171,-2.9690487
-7.288747747747751,-2.9564362
-7.3433243243243265,-2.9439964
-7.397900900900902,-2.9317336
-7.452477477477482,-2.919642
-7.507054054054057,-2.907714
-7.561630630630633,-2.895952
-7.616207207207209,-2.884363
-7.670783783783788,-2.8729253
-7.725360360360364,-2.8616364
-7.779936936936936,-2.8505156
-7.8345135135135155,-2.8395336
-7.889090090090091,-2.828701
-7.943666666666667,-2.8180144
-7.998243243243246,-2.8074703
-8.052819819819822,-2.7970698
-8.107396396396398,-2.7867937
-8.161972972972977,-2.7766666
-8.216549549549553,-2.7666566
-8.271126126126129,-2.756783
-8.325702702702705,-2.7470343
-8.380279279279284,-2.7374108
-8.43485585585586,-2.7279058
-8.489432432432432,-2.7185066
-8.544009009009011,-2.7092402
-8.598585585585587,-2.7000916
-8.653162162162163,-2.691032
-8.707738738738742,-2.6820936
-8.762315315315318,-2.6732633
-8.816891891891894,-2.664534
-8.871468468468473,-2.65591
-8.926045045045049,-2.647374
-8.980621621621625,-2.6389475
-9.0351981981982,-2.6306028
-9.08977477477478,-2.6223633
-9.144351351351352,-2.6142058
-9.198927927927928,-2.6061447
-9.253504504504507,-2.5981674
-9.308081081081083,-2.5902736
-9.362657657657659,-2.58246
-9.417234234234238,-2.5747294
-9.471810810810814,-2.5670798
-9.52638738738739,-2.559499
-9.580963963963965,-2.5519984
-9.635540540540545,-2.5445814
-9.69011711711712,-2.5372229
-9.744693693693696,-2.5299315
-9.799270270270275,-2.5227206
-9.853846846846848,-2.5155702
-9.908423423423423,-2.5084782
-9.963000000000003,-2.5014524
-10.017576576576579,-2.4944851
-10.072153153153154,-2.487595
-10.126729729729734,-2.4807465
-10.18130630630631,-2.4739654
-10.235882882882885,-2.467228
-10.290459459459461,-2.4605582
-10.34503603603604,-2.4539425
-10.399612612612616,-2.447367
-10.454189189189192,-2.4408417
-10.508765765765771,-2.4343743
-10.563342342342343,-2.4279418
-10.61791891891892,-2.4215586
-10.672495495495498,-2.415232
-10.727072072072074,-2.4089508
-10.78164864864865,-2.402716
-10.836225225225226,-2.3965108
-10.890801801801805,-2.3903582
-10.945378378378381,-2.3842432
-10.999954954954957,-2.378162
-11.054531531531536,-2.3721337
-11.109108108108112,-2.366142
-11.163684684684688,-2.360192
-11.218261261261267,-2.3542771
-11.272837837837839,-2.3484058
-11.327414414414415,-2.342575
-11.381990990990994,-2.3367655
-11.43656756756757,-2.33101
-11.491144144144146,-2.3253028
-11.545720720720722,-2.319615
-11.6002972972973,-2.3139741
-11.654873873873877,-2.3083653
-11.709450450450452,-2.3027933
-11.764027027027032,-2.2972791
-11.818603603603608,-2.2917812
-11.873180180180183,-2.2863328
-11.927756756756759,-2.2809243
-11.982333333333335,-2.2755353
-12.03690990990991,-2.2701888
-12.091486486486486,-2.264898
-12.146063063063066,-2.2596188
-12.200639639639641,-2.2544076
-12.255216216216217,-2.2492042
-12.309792792792797,-2.2440526
-12.364369369369372,-2.2389328
-12.418945945945948,-2.233842
-12.473522522522527,-2.2287915
-12.528099099099103,-2.223769
-12.582675675675679,-2.2187846
-12.637252252252255,-2.213829
-12.69182882882883,-2.2089183
-12.746405405405406,-2.2040253
-12.800981981981982,-2.1991584
-12.855558558558561,-2.1943243
-12.910135135135137,-2.1895437
-12.964711711711713,-2.1847801
-12.964711711711713,-2.180035
-12.910135135135135,-2.175322
-12.855558558558558,-2.1706588
-12.800981981981982,-2.1660106
-12.746405405405405,-2.1613963
-12.691828828828829,-2.1568139
-12.637252252252255,-2.1522732
-12.582675675675677,-2.1477482
-12.528099099099101,-2.1432643
-12.473522522522524,-2.1388202
-12.418945945945948,-2.134399
-12.36436936936937,-2.1300168
-12.309792792792793,-2.125671
-12.255216216216217,-2.1213636
-12.20063963963964,-2.1170805
-12.146063063063064,-2.1128302
-12.091486486486486,-2.1086352
-12.036909909909909,-2.104461
-11.982333333333333,-2.1003408
-11.927756756756759,-2.0962443
-11.873180180180182,-2.0921774
-11.818603603603606,-2.0881636
-11.764027027027028,-2.084173
-11.709450450450452,-2.080211
-11.654873873873875,-2.076294
-11.600297297297297,-2.0723958
-11.545720720720722,-2.068548
-11.491144144144144,-2.06471
-11.436567567567568,-2.0609145
-11.38199099099099,-2.057143
-11.327414414414413,-2.0534098
-11.272837837837837,-2.0497067
-11.218261261261263,-2.0460207
-11.163684684684688,-2.0423648
-11.10910810810811,-2.038741
-11.054531531531532,-2.035117
-10.999954954954957,-2.0315256
-10.94537837837838,-2.0279565
-10.890801801801803,-2.024416
-10.836225225225226,-2.0208838
-10.781648648648648,-2.0173626
-10.727072072072072,-2.0138667
-10.672495495495495,-2.0103924
-10.617918918918917,-2.0069273
-10.563342342342342,-2.003463
-10.508765765765768,-2.0000336
-10.454189189189192,-1.9965987
-10.399612612612614,-1.9931802
-10.345036036036038,-1.9897718
-10.290459459459461,-1.986385
-10.235882882882883,-1.9829848
-10.181306306306308,-1.9795927
-10.12672972972973,-1.9762242
-10.072153153153153,-1.972838
-10.017576576576577,-1.96948
-9.963,-1.9661125
-9.908423423423422,-1.9627576
-9.85384684684685,-1.9593829
-9.799270270270272,-1.956034
-9.744693693693696,-1.9526666
-9.690117117117119,-1.949321
-9.635540540540543,-1.9459568
-9.580963963963965,-1.9425951
-9.526387387387388,-1.9392314
-9.471810810810812,-1.9358733
-9.417234234234234,-1.9325064
-9.362657657657657,-1.929147
-9.308081081081081,-1.9257736
-9.253504504504503,-1.9223893
-9.198927927927926,-1.9190108
-9.144351351351354,-1.9156164
-9.089774774774778,-1.9122286
-9.0351981981982,-1.9088174
-8.980621621621623,-1.9054173
-8.926045045045047,-1.9020019
-8.87146846846847,-1.8985786
-8.816891891891892,-1.895137
-8.762315315315316,-1.8917111
-8.707738738738739,-1.8882475
-8.653162162162161,-1.8847845
-8.598585585585585,-1.88133
-8.544009009009008,-1.8778435
-8.48943243243243,-1.8743471
-8.434855855855858,-1.8708336
-8.380279279279282,-1.8673111
-8.325702702702705,-1.8637806
-8.271126126126127,-1.8602303
-8.216549549549551,-1.8566682
-8.161972972972974,-1.8530836
-8.107396396396396,-1.849497
-8.05281981981982,-1.8458669
-7.998243243243243,-1.8422476
-7.943666666666666,-1.8385928
-7.8890900900900895,-1.8349209
-7.834513513513512,-1.8312378
-7.779936936936935,-1.8275261
-7.725360360360362,-1.8238019
-7.670783783783786,-1.8200424
-7.616207207207209,-1.8162744
-7.561630630630632,-1.8124702
-7.507054054054055,-1.8086356
-7.452477477477478,-1.8047876
-7.397900900900901,-1.8008903
-7.343324324324325,-1.7969925
-7.288747747747747,-1.7930486
-7.2341711711711705,-1.7890652
-7.179594594594594,-1.7850564
-7.125018018018017,-1.781018
-7.070441441441444,-1.7769321
-7.0158648648648665,-1.7728194
-6.96128828828829,-1.7686422
-6.906711711711713,-1.7644504
-6.8521351351351365,-1.7601973
-6.797558558558559,-1.7559227
-6.742981981981982,-1.7515725
-6.688405405405406,-1.7471772
-6.633828828828829,-1.7427247
-6.579252252252251,-1.7382193
-6.524675675675675,-1.7336599
-6.470099099099098,-1.7290297
-6.415522522522521,-1.7243376
-6.360945945945948,-1.7195734
-6.306369369369372,-1.7147274
-6.251792792792794,-1.7098091
-6.197216216216217,-1.7048149
-6.142639639639641,-1.6997272
-6.088063063063064,-1.6945518
-6.0334864864864866,-1.689274
-5.97890990990991,-1.683904
-5.924333333333333,-1.6784168
-5.869756756756757,-1.672822
-5.815180180180179,-1.6671045
-5.760603603603602,-1.6612595
-5.706027027027026,-1.6552804
-5.651450450450453,-1.6491573
-5.596873873873876,-1.6428893
-5.542297297297298,-1.6364616
-5.487720720720722,-1.6298786
-5.433144144144145,-1.6231052
-5.378567567567568,-1.6161487
-5.323990990990991,-1.6090059
-5.269414414414414,-1.601653
-5.2148378378378375,-1.5940868
-5.160261261261261,-1.5862865
-5.105684684684683,-1.5782542
-5.051108108108107,-1.5699757
-4.99653153153153,-1.5614363
-4.941954954954953,-1.5526162
-4.887378378378376,-1.5435032
-4.8328018018018,-1.5340909
-4.778225225225222,-1.524369
-4.723648648648645,-1.5143176
-4.669072072072069,-1.5039296
-4.614495495495499,-1.493173
-4.559918918918923,-1.4820452
-4.505342342342345,-1.4705253
-4.4507657657657695,-1.4586118
-4.396189189189192,-1.4462748
-4.341612612612614,-1.4335064
-4.287036036036039,-1.4202827
-4.232459459459461,-1.4065882
-4.177882882882884,-1.3924162
-4.123306306306308,-1.3777378
-4.06872972972973,-1.3625501
-4.0141531531531545,-1.3468171
-3.959576576576577,-1.3305223
