Potential,Flux
10.515,-0.050010562
10.476017017017018,-0.050311394
10.437034034034035,-0.050614886
10.398051051051052,-0.05091841
10.35906806806807,-0.05122478
10.320085085085086,-0.05153367
10.281102102102103,-0.05184282
10.24211911911912,-0.05215461
10.203136136136136,-0.05246722
10.164153153153153,-0.052783553
10.12517017017017,-0.053100247
10.086187187187187,-0.053419404
10.047204204204204,-0.053739503
10.008221221221222,-0.054061875
9.969238238238239,-0.054385982
9.930255255255256,-0.05471165
9.891272272272273,-0.055039804
9.85228928928929,-0.055368625
9.813306306306307,-0.055699755
9.774323323323324,-0.05603275
9.735340340340342,-0.056367513
9.696357357357359,-0.05670382
9.657374374374374,-0.05704218
9.618391391391391,-0.057383403
9.579408408408408,-0.05772542
9.540425425425425,-0.05807064
9.501442442442443,-0.058415398
9.46245945945946,-0.058763
9.423476476476477,-0.05911316
9.384493493493494,-0.059465505
9.345510510510511,-0.059820198
9.306527527527528,-0.060175788
9.267544544544545,-0.060534526
9.228561561561563,-0.060894106
9.18957857857858,-0.06125634
9.150595595595597,-0.06162061
9.111612612612614,-0.06198731
9.072629629629631,-0.06235617
9.033646646646647,-0.06272725
8.994663663663664,-0.06310104
8.95568068068068,-0.06347776
8.916697697697698,-0.06385534
8.877714714714715,-0.064235575
8.838731731731732,-0.06461939
8.79974874874875,-0.065005496
8.760765765765766,-0.0653947
8.721782782782784,-0.06578518
8.6827997997998,-0.066178605
8.643816816816818,-0.06657625
8.604833833833835,-0.06697581
8.56585085085085,-0.06737961
8.526867867867868,-0.06778514
8.487884884884885,-0.06819632
8.448901901901902,-0.0686087
8.409918918918919,-0.06902564
8.370935935935936,-0.06944593
8.331952952952953,-0.069869176
8.29296996996997,-0.07029725
8.253986986986988,-0.0707283
8.215004004004005,-0.07116441
8.176021021021022,-0.071604565
8.137038038038039,-0.07204952
8.098055055055056,-0.07249862
8.059072072072073,-0.07295339
8.02008908908909,-0.07341146
7.981106106106107,-0.073877126
7.942123123123124,-0.07434658
7.903140140140141,-0.074821465
7.864157157157157,-0.07530341
7.825174174174174,-0.07579122
7.786191191191191,-0.07628449
7.7472082082082085,-0.076784864
7.708225225225226,-0.07729233
7.669242242242243,-0.07780539
7.63025925925926,-0.078328
7.591276276276277,-0.07885807
7.552293293293294,-0.07939575
7.513310310310311,-0.079941995
7.4743273273273285,-0.080497965
7.435344344344345,-0.08106218
7.396361361361362,-0.081636086
7.357378378378379,-0.08222051
7.318395395395395,-0.08281448
7.279412412412412,-0.08341977
7.24042942942943,-0.08403795
7.201446446446447,-0.08466663
7.162463463463464,-0.08530768
7.123480480480481,-0.08596217
7.084497497497498,-0.08662921
7.045514514514515,-0.08731197
7.006531531531532,-0.088007905
6.9675485485485495,-0.088719755
6.928565565565567,-0.08944797
6.889582582582583,-0.090191364
6.8505995995996,-0.09095358
6.811616616616617,-0.09173318
6.772633633633634,-0.09253305
6.733650650650651,-0.09335183
6.694667667667669,-0.09419117
6.655684684684685,-0.095052056
6.616701701701702,-0.09593626
6.577718718718719,-0.09684137
6.538735735735736,-0.09777201
6.499752752752753,-0.09872839
6.460769769769771,-0.099710755
6.421786786786787,-0.10072166
6.382803803803805,-0.101760305
6.343820820820822,-0.10282738
6.304837837837838,-0.10392893
6.265854854854855,-0.10505954
6.226871871871872,-0.1062257
6.18788888888889,-0.10742718
6.148905905905907,-0.10866425
6.109922922922923,-0.1099421
6.07093993993994,-0.111256614
6.031956956956958,-0.112613074
5.9929739739739745,-0.11401373
5.953990990990992,-0.11545839
5.915008008008009,-0.11694977
5.876025025025025,-0.11848847
5.837042042042043,-0.12007948
5.79805905905906,-0.121722
5.759076076076076,-0.12342041
5.7200930930930936,-0.12517387
5.681110110110111,-0.12698789
5.642127127127128,-0.12886256
5.603144144144145,-0.13080084
5.564161161161161,-0.13280599
5.525178178178178,-0.13488078
5.486195195195196,-0.13702819
5.447212212212213,-0.1392487
5.40822922922923,-0.14154768
5.369246246246247,-0.14392681
5.330263263263264,-0.14639063
5.291280280280281,-0.14894202
5.252297297297297,-0.15158318
5.213314314314315,-0.15431996
5.174331331331332,-0.15715353
5.135348348348349,-0.16008928
5.096365365365366,-0.16313115
5.057382382382383,-0.16628286
5.018399399399399,-0.1695487
4.979416416416417,-0.17293315
4.9404334334334346,-0.1764405
4.901450450450451,-0.18007617
4.862467467467468,-0.18384542
4.823484484484485,-0.187753
4.784501501501502,-0.19180243
4.745518518518519,-0.1960011
4.706535535535536,-0.2003549
4.667552552552553,-0.20487122
4.628569569569571,-0.2095507
4.589586586586587,-0.21440595
4.550603603603604,-0.21944235
4.511620620620621,-0.22466306
4.4726376376376376,-0.23007582
4.433654654654656,-0.23569286
4.394671671671673,-0.2415151
4.355688688688689,-0.24755576
4.316705705705706,-0.25382045
4.277722722722723,-0.2603182
4.23873973973974,-0.2670558
4.1997567567567575,-0.27404574
4.160773773773774,-0.28129414
4.121790790790791,-0.2888138
4.082807807807809,-0.29660913
4.043824824824825,-0.3046951
4.004841841841842,-0.31307995
3.9658588588588595,-0.32177728
3.9268758758758766,-0.33079463
3.8878928928928937,-0.3401439
3.848909909909911,-0.34983966
3.809926926926927,-0.35988966
3.7709439439439443,-0.3703091
3.7319609609609614,-0.38111296
3.6929779779779786,-0.39230964
3.6539949949949957,-0.40391627
3.615012012012012,-0.41594392
3.57602902902903,-0.42840964
3.537046046046047,-0.44132587
3.4980630630630634,-0.45470712
3.4590800800800805,-0.46857113
3.4200970970970976,-0.48293048
3.3811141141141148,-0.49780354
3.342131131131132,-0.5132041
3.303148148148149,-0.5291531
3.2641651651651653,-0.5456647
3.2251821821821833,-0.56275284
3.1861991991991996,-0.5804434
3.1472162162162167,-0.598749
3.108233233233234,-0.6176867
3.06925025025025,-0.6372781
3.030267267267268,-0.657544
2.9912842842842853,-0.67849874
2.9523013013013015,-0.7001646
2.9133183183183187,-0.7225613
2.8743353353353367,-0.7457124
2.835352352352353,-0.7696332
2.796369369369369,-0.79434633
2.7573863863863872,-0.81987315
2.7184034034034035,-0.8462384
2.6794204204204206,-0.87345743
2.6404374374374386,-0.90155363
2.601454454454455,-0.93055457
2.562471471471471,-0.96047866
2.52348848848849,-0.9913432
2.4845055055055063,-1.0231816
2.4455225225225234,-1.0560081
2.4065395395395406,-1.0898464
2.3675565565565577,-1.12472
2.328573573573573,-1.160654
2.289590590590592,-1.1976671
2.250607607607609,-1.2357846
2.2116246246246245,-1.275026
2.1726416416416434,-1.315412
2.133658658658659,-1.3569708
2.094675675675676,-1.3997175
2.055692692692695,-1.4436717
2.01670970970971,-1.488859
1.9777267267267273,-1.5352935
1.9387437437437427,-1.5829934
1.8997607607607616,-1.6319792
1.8607777777777788,-1.6822611
1.8217947947947941,-1.7338597
1.782811811811813,-1.7867827
1.7438288288288284,-1.8410476
1.7048458458458455,-1.8966568
1.6658628628628644,-1.9536208
1.6268798798798798,-2.0119483
1.587896896896897,-2.071633
1.5489139139139159,-2.132683
1.5099309309309312,-2.1950934
1.4709479479479484,-2.258851
1.4319649649649655,-2.323955
1.3929819819819826,-2.3903894
1.3539989989989998,-2.4581354
1.315016016016017,-2.527172
1.276033033033034,-2.597479
1.2370500500500494,-2.6690185
1.1980670670670683,-2.7417653
1.1590840840840855,-2.815675
1.1201011011011008,-2.8907037
1.0811181181181198,-2.9668102
1.0421351351351351,-3.0439358
1.0031521521521523,-3.1220217
0.9641691691691694,-3.2010121
0.9251861861861865,-3.2808297
0.8862032032032037,-3.3614092
0.8472202202202208,-3.4426763
0.808237237237238,-3.524542
0.7692542542542551,-3.6069264
0.7302712712712705,-3.6897368
0.6912882882882894,-3.7728846
0.6523053053053065,-3.85627
0.6133223223223219,-3.939797
0.5743393393393408,-4.0233655
0.5353563563563561,-4.10686
0.4963733733733733,-4.1901875
0.4573903903903922,-4.2732334
0.41840740740740756,-4.3558984
0.3794244244244247,-4.438069
0.34044144144144184,-4.519634
0.301458458458459,-4.60049
0.2624754754754761,-4.680529
0.22349249249249326,-4.759649
0.1845095095095104,-4.837743
0.14552652652652753,-4.914717
0.10654354354354467,-4.990465
0.06756056056056181,-5.0648994
0.028577577577577173,-5.1379247
-0.010405405405405688,-5.209457
-0.04938838838838677,-5.279407
-0.08837137137137141,-5.3477054
-0.12735435435435427,-5.414272
-0.16633733733733713,-5.4790363
-0.20532032032032,-5.541937
-0.24430330330330285,-5.602909
-0.2832862862862857,-5.661899
-0.3222692692692686,-5.7188687
-0.36125225225225144,-5.773755
-0.4002352352352343,-5.826528
-0.43921821821821716,-5.877153
-0.4782012012012018,-5.9255986
-0.5171841841841829,-5.9718413
-0.5561671671671657,-6.0158596
-0.5951501501501504,-6.0576434
-0.6341331331331315,-6.0971727
-0.6731161161161161,-6.1344476
-0.712099099099099,-6.169464
-0.75108208208208,-6.202225
-0.7900650650650647,-6.232739
-0.8290480480480475,-6.2610106
-0.8680310310310304,-6.287053
-0.9070140140140133,-6.310886
-0.9459969969969961,-6.3325324
-0.9849799799799808,-6.352012
-1.0239629629629619,-6.369351
-1.0629459459459465,-6.38458
-1.1019289289289294,-6.3977284
-1.1409119119119104,-6.408834
-1.179894894894895,-6.4179316
-1.218877877877878,-6.425056
-1.257860860860859,-6.4302535
-1.2968438438438437,-6.433568
-1.3358268268268265,-6.4350357
-1.3748098098098094,-6.434714
-1.4137927927927922,-6.4326406
-1.452775775775775,-6.428864
-1.491758758758758,-6.4234424
-1.5307417417417408,-6.416423
-1.5697247247247255,-6.407852
-1.6087077077077065,-6.397787
-1.6476906906906894,-6.3862824
-1.686673673673674,-6.3733883
-1.7256566566566551,-6.3591647
-1.7646396396396398,-6.3436565
-1.8036226226226226,-6.3269243
-1.8426056056056037,-6.309024
-1.8815885885885884,-6.2900033
-1.9205715715715712,-6.2699246
-1.959554554554554,-6.2488384
-1.998537537537537,-6.2267966
-2.03752052052052,-6.20385
-2.0765035035035044,-6.1800594
-2.1154864864864855,-6.15547
-2.1544694694694684,-6.130135
-2.193452452452453,-6.104103
-2.232435435435434,-6.0774236
-2.2714184184184187,-6.0501466
-2.3104014014014016,-6.022318
-2.3493843843843827,-5.9939837
-2.3883673673673673,-5.9651933
-2.42735035035035,-5.935982
-2.466333333333333,-5.9063997
-2.505316316316316,-5.8764844
-2.5442992992992988,-5.846274
-2.5832822822822816,-5.8158135
-2.6222652652652645,-5.7851343
-2.6612482482482474,-5.7542706
-2.70023123123123,-5.723262
-2.739214214214213,-5.6921415
-2.7781971971971977,-5.660936
-2.817180180180179,-5.6296782
-2.8561631631631617,-5.5983973
-2.8951461461461463,-5.5671186
-2.9341291291291274,-5.5358706
-2.973112112112112,-5.5046806
-3.012095095095095,-5.4735622
-3.0510780780780777,-5.4425445
-3.0900610610610606,-5.4116454
-3.1290440440440435,-5.3808866
-3.1680270270270263,-5.350287
-3.207010010010009,-5.31986
-3.245992992992992,-5.289623
-3.2849759759759767,-5.2595887
-3.3239589589589578,-5.229773
-3.3629419419419406,-5.2001867
-3.4019249249249253,-5.1708417
-3.4409079079079063,-5.14175
-3.479890890890891,-5.1129155
-3.518873873873874,-5.084354
-3.557856856856855,-5.0560694
-3.5968398398398396,-5.028068
-3.6358228228228224,-5.0003557
-3.6748058058058053,-4.9729395
-3.713788788788788,-4.945824
-3.752771771771771,-4.91901
-3.791754754754754,-4.892504
-3.8307377377377367,-4.8663073
-3.8697207207207214,-4.84042
-3.9087037037037025,-4.8148475
-3.9476866866866853,-4.7895875
-3.98666966966967,-4.76464
-4.025652652652653,-4.740008
-4.064635635635634,-4.7156925
-4.1036186186186185,-4.6916866
-4.142601601601601,-4.6679945
-4.181584584584584,-4.6446104
-4.220567567567567,-4.621537
-4.25955055055055,-4.5987673
-4.298533533533533,-4.576304
-4.337516516516516,-4.554141
-4.3764994994995,-4.5322785
-4.415482482482481,-4.51071
-4.454465465465464,-4.4894323
-4.493448448448449,-4.468449
-4.53243143143143,-4.447747
-4.571414414414415,-4.4273295
-4.6103973973973975,-4.4071913
-4.649380380380379,-4.3873262
-4.688363363363363,-4.3677344
-4.727346346346346,-4.348407
-4.766329329329327,-4.329344
-4.805312312312314,-4.310538
-4.844295295295295,-4.291989
-4.8832782782782775,-4.273689
-4.922261261261262,-4.255636
-4.961244244244243,-4.2378235
-5.000227227227226,-4.220251
-5.039210210210211,-4.2029123
-5.078193193193194,-4.1858025
-5.117176176176175,-4.1689196
-5.156159159159159,-4.152256
-5.195142142142142,-4.135813
-5.234125125125123,-4.1195793
-5.273108108108108,-4.103557
-5.312091091091091,-4.087738
-5.351074074074072,-4.0721216
-5.390057057057058,-4.0567007
-5.429040040040039,-4.041473
-5.4680230230230205,-4.026433
-5.507006006006005,-4.0115814
-5.545988988988988,-3.9969087
-5.584971971971971,-3.9824157
-5.623954954954954,-3.9680953
-5.6629379379379365,-3.9539459
-5.701920920920919,-3.9399636
-5.740903903903906,-3.9261444
-5.779886886886885,-3.912485
-5.818869869869868,-3.898982
-5.857852852852854,-3.885631
-5.896835835835834,-3.8724306
-5.935818818818817,-3.8593776
-5.974801801801803,-3.8464668
-6.013784784784782,-3.833696
-6.052767767767765,-3.8210633
-6.091750750750752,-3.8085635
-6.130733733733734,-3.796195
-6.169716716716714,-3.7839544
-6.2086996996997,-3.7718391
-6.247682682682683,-3.759846
-6.286665665665662,-3.7479749
-6.325648648648649,-3.7362182
-6.364631631631632,-3.724578
-6.403614614614611,-3.7130463
-6.442597597597597,-3.7016265
-6.48158058058058,-3.6903136
-6.520563563563563,-3.6791022
-6.559546546546546,-3.6679962
-6.598529529529529,-3.6569881
-6.637512512512515,-3.6460779
-6.6764954954954945,-3.635262
-6.715478478478477,-3.6245391
-6.754461461461464,-3.6139066
-6.793444444444443,-3.6033633
-6.832427427427426,-3.5929074
-6.871410410410412,-3.582534
-6.910393393393392,-3.5722437
-6.9493763763763745,-3.5620346
-6.988359359359361,-3.5519035
-7.027342342342344,-3.5418503
-7.066325325325323,-3.5318716
-7.1053083083083095,-3.5219648
-7.144291291291292,-3.51213
-7.183274274274272,-3.5023654
-7.222257257257258,-3.4926686
-7.261240240240241,-3.483039
-7.30022322322322,-3.4734738
-7.339206206206207,-3.4639728
-7.3781891891891895,-3.4545333
-7.417172172172169,-3.4451554
-7.456155155155155,-3.4358335
-7.495138138138138,-3.4265716
-7.534121121121121,-3.4173663
-7.573104104104104,-3.4082146
-7.612087087087087,-3.3991165
-7.65107007007007,-3.3900712
-7.690053053053052,-3.381077
-7.729036036036035,-3.3721347
-7.768019019019018,-3.3632376
-7.807002002002001,-3.3543892
-7.845984984984984,-3.3455863
-7.884967967967967,-3.3368309
-7.92395095095095,-3.3281198
-7.9629339339339325,-3.3194501
-8.001916916916915,-3.3108244
-8.040899899899902,-3.3022375
-8.079882882882881,-3.2936945
-8.118865865865864,-3.2851877
-8.15784884884885,-3.2767222
-8.19683183183183,-3.2682922
-8.235814814814812,-3.2598999
-8.274797797797799,-3.2515435
-8.313780780780778,-3.2432213
-8.352763763763761,-3.234935
-8.391746746746747,-3.226681
-8.43072972972973,-3.2184615
-8.469712712712713,-3.2102716
-8.508695695695696,-3.2021153
-8.547678678678679,-3.1939895
-8.586661661661662,-3.185893
-8.625644644644645,-3.1778295
-8.664627627627628,-3.1697917
-8.70361061061061,-3.1617842
-8.742593593593593,-3.1538043
-8.781576576576576,-3.1458514
-8.820559559559559,-3.137925
-8.859542542542542,-3.1300251
-8.898525525525525,-3.1221523
-8.937508508508511,-3.114303
-8.93750850850851,-3.1064794
-8.898525525525528,-3.0986814
-8.859542542542544,-3.090907
-8.82055955955956,-3.0831552
-8.78157657657658,-3.0754292
-8.742593593593593,-3.0677254
-8.703610610610612,-3.0600443
-8.664627627627631,-3.052386
-8.625644644644645,-3.0447488
-8.586661661661664,-3.0371342
-8.54767867867868,-3.0295415
-8.508695695695696,-3.0219705
-8.469712712712715,-3.0144205
-8.430729729729732,-3.00689
-8.391746746746747,-2.9993806
-8.352763763763765,-2.991891
-8.313780780780784,-2.9844224
-8.274797797797799,-2.9769733
-8.235814814814816,-2.9695454
-8.196831831831835,-2.962134
-8.15784884884885,-2.9547427
-8.118865865865867,-2.9473732
-8.079882882882886,-2.9400191
-8.0408998998999,-2.932687
-8.001916916916919,-2.925372
-7.962933933933937,-2.9180753
-7.923950950950951,-2.9107976
-7.88496796796797,-2.9035387
-7.845984984984988,-2.8962944
-7.807002002002003,-2.8890712
-7.768019019019021,-2.881864
-7.729036036036039,-2.874676
-7.690053053053054,-2.867504
-7.651070070070072,-2.860351
-7.61208708708709,-2.853213
-7.573104104104105,-2.846092
-7.534121121121123,-2.8389874
-7.495138138138142,-2.8318994
-7.456155155155156,-2.8248284
-7.417172172172174,-2.8177738
-7.3781891891891895,-2.810733
-7.339206206206208,-2.8037088
-7.300223223223226,-2.7966971
-7.26124024024024,-2.789704
-7.222257257257258,-2.782722
-7.183274274274277,-2.7757566
-7.1442912912912915,-2.7688034
-7.1053083083083095,-2.761863
-7.0663253253253275,-2.7549365
-7.027342342342342,-2.748024
-6.988359359359361,-2.7411196
-6.949376376376379,-2.7342296
-6.910393393393393,-2.7273476
-6.871410410410412,-2.7204769
-6.8324274274274295,-2.7136168
-6.793444444444445,-2.7067633
-6.754461461461463,-2.6999187
-6.715478478478481,-2.6930797
-6.676495495495496,-2.6862488
-6.637512512512513,-2.6794214
-6.598529529529532,-2.6726
-6.559546546546547,-2.6657798
-6.520563563563565,-2.6589622
-6.481580580580584,-2.6521456
-6.442597597597598,-2.6453283
-6.403614614614616,-2.6385088
-6.364631631631634,-2.6316864
-6.325648648648649,-2.6248577
-6.286665665665668,-2.6180239
-6.247682682682686,-2.6111827
-6.2086996996997,-2.6043296
-6.169716716716719,-2.5974646
-6.130733733733736,-2.5905852
-6.091750750750752,-2.5836897
-6.05276776776777,-2.5767756
-6.013784784784788,-2.56984
-5.974801801801803,-2.562881
-5.93581881881882,-2.5558963
-5.896835835835839,-2.548881
-5.8578528528528535,-2.5418355
-5.8188698698698715,-2.5347548
-5.7798868868868905,-2.5276337
-5.740903903903905,-2.5204701
-5.701920920920923,-2.5132627
-5.662937937937941,-2.5060067
-5.6239549549549555,-2.4986942
-5.584971971971974,-2.491326
-5.545988988988992,-2.4838955
-5.507006006006007,-2.476399
-5.468023023023026,-2.46883
-5.429040040040039,-2.4611862
-5.390057057057058,-2.4534602
-5.351074074074076,-2.445648
-5.312091091091091,-2.4377415
-5.27310810810811,-2.4297378
-5.234125125125127,-2.4216259
-5.195142142142142,-2.413405
-5.15615915915916,-2.4050643
-5.117176176176178,-2.3965995
-5.078193193193194,-2.3880022
-5.039210210210212,-2.3792634
-5.00022722722723,-2.370377
-4.961244244244245,-2.3613334
-4.922261261261262,-2.3521252
-4.883278278278281,-2.342743
-4.844295295295296,-2.3331764
-4.805312312312314,-2.3234186
-4.766329329329332,-2.3134556
-4.727346346346347,-2.3032825
-4.688363363363365,-2.2928822
-4.649380380380383,-2.2822485
-4.6103973973973975,-2.2713673
-4.5714144144144155,-2.260228
-4.5324314314314345,-2.2488186
-4.493448448448449,-2.2371264
-4.454465465465467,-2.225136
-4.415482482482485,-2.2128367
-4.3764994994995,-2.2002118
-4.337516516516518,-2.1872494
-4.298533533533536,-2.1739333
-4.259550550550551,-2.1602488
-4.220567567567569,-2.146179
-4.181584584584588,-2.1317084
-4.142601601601602,-2.1168227
-4.10361861861862,-2.1015027
-4.064635635635638,-2.0857303
-4.025652652652654,-2.0694888
-3.9866696696696717,-2.0527563
-3.9476866866866898,-2.0355194
-3.9087037037037042,-2.0177567
-3.8697207207207223,-1.9994467
-3.830737737737741,-1.9805709
-3.7917547547547557,-1.9611089
-3.7527717717717737,-1.9410379
-3.7137887887887917,-1.9203413
-3.674805805805807,-1.8989921
-3.635822822822825,-1.8769734
-3.596839839839843,-1.8542598
-3.5578568568568576,-1.8308296
-3.5188738738738756,-1.806658
-3.479890890890891,-1.7817261
-3.440907907907909,-1.7560092
-3.401924924924927,-1.7294828
-3.3629419419419415,-1.7021233
-3.3239589589589604,-1.6739119
-3.2849759759759785,-1.6448178
-3.245992992992993,-1.6148273
-3.207010010010011,-1.5839105
-3.168027027027029,-1.5520434
-3.1290440440440443,-1.5192096
-3.0900610610610624,-1.4853821
-3.0510780780780804,-1.4505373
-3.012095095095095,-1.4146576
-2.973112112112114,-1.3777193
-2.934129129129132,-1.3397019
-2.8951461461461463,-1.3005885
-2.8561631631631643,-1.2603563
-2.8171801801801823,-1.2189872
-2.7781971971971977,-1.1764644
-2.7392142142142157,-1.1327723
-2.7002312312312338,-1.0878917
-2.6612482482482482,-1.0418109
-2.622265265265267,-0.99451435
-2.583282282282285,-0.9459895
-2.5442992992992997,-0.8962302
-2.5053163163163177,-0.84521806
-2.4663333333333357,-0.7929525
-2.427350350350351,-0.73942643
