Potential,Flux
18.366471569746505,0.32120518053212954
18.27144974999717,0.30404462235841706
18.176427930247836,0.28868346947071716
18.081406110498502,0.2767819090545371
17.98599485706167,0.2652952820649451
17.890973037312335,0.2545006642654881
17.795951217563,0.24481344256190882
17.700929397813663,0.23595654119066048
17.60590757806433,0.22779119553039237
17.510885758314995,0.22087201058735273
17.41586393856566,0.2138140610229623
17.320452685128824,0.20717104488516
17.22543086537949,0.20108172679529654
17.130409045630156,0.195546106753372
17.035387225880818,0.1898721755692514
16.940365406131484,0.18461317781171893
16.84534358638215,0.1803232650078682
16.750321766632812,0.17520303187168645
16.654910513195983,0.17160467477881589
16.55988869344665,0.16759138425935716
16.464866873697314,0.16357809373989848
16.369845053947977,0.1599797366470279
16.274823234198642,0.15652014417550808
16.179801414449308,0.15278347594044145
16.08477959469997,0.15000183480525955
15.989368341263138,0.1468329224719288
15.894346521513802,0.14392657456919308
15.799324701764467,0.14125558234776805
15.704302882015131,0.13839095452726854
15.609281062265797,0.13637025141374223
15.514259242516461,0.13340857905412815
15.419237422767127,0.13147131610507418
15.324215603017791,0.1288420439658853
15.22880434958096,0.12676601639548057
15.133782529831626,0.1250083311917041
15.03876071008229,0.12323704161328537
14.943738890332956,0.12080140507317094
14.84871707058362,0.11890540872719842
14.753695250834285,0.1170787946919013
14.65867343108495,0.11507214943217195
14.563262177648115,0.11346683322438847
14.468240357898779,0.11162616133529435
14.373218538149445,0.10978548944620026
14.278196718400109,0.10836020446284898
14.183174898650774,0.10734985290608583
14.088153078901438,0.10584112775826221
13.993131259152104,0.10408389603364046
13.897720005715273,0.10305948662308032
13.802698185965937,0.10164825949352604
13.707676366216603,0.10043021448389146
13.612654546467267,0.0990602539574186
13.517632726717933,0.09793925348689861
13.422610906968597,0.09643052833907499
13.327589087219257,0.09539296803302737
13.232177833782428,0.0943826164762642
13.137156014033092,0.09279090464312295
13.042134194283756,0.09179461094015677
12.947112374534422,0.09038293033144774
12.852090554785086,0.08940069448227853
12.757068735035752,0.08863930298146823
12.662046915286416,0.08708931123056317
12.566635661849586,0.08660499549329968
12.471613842100247,0.08542867056590127
12.376592022350911,0.08476432360420558
12.281570202601577,0.08358799867680716
12.18654838285224,0.08234274491788811
12.091526563102907,0.08130473113268574
11.99650474335357,0.08043269071811862
11.90109348991674,0.07978240161021989
11.806071670167405,0.0792010413338418
11.71104985041807,0.07813536532020024
11.616028030668735,0.0773603694447477
11.5210062109194,0.07675134693993041
11.425984391170065,0.07571378663388278
11.330962571420729,0.07510476412906548
11.235551317983894,0.07409441257230234
11.140529498234558,0.07345772783904583
11.045507678485224,0.07229546076544441
10.950485858735888,0.0717004961144241
10.855464038986554,0.07093910461361379
10.760442219237218,0.0703300821087965
10.665420399487884,0.06925080172051269
10.570009146051053,0.06858645475881699
10.474987326301717,0.06782551673716143
10.379965506552383,0.06709178746479033
10.284943686803047,0.06645510273153384
10.189921867053712,0.06550052911080383
10.094900047304376,0.06512686228729717
9.999878227555042,0.0646284886962367
9.904466974118206,0.06404712841985863
9.809445154368872,0.06285719911781798
9.714423334619536,0.062220514384561484
9.619401514870201,0.06134847396999436
9.524379695120865,0.060974807146487696
9.429357875371531,0.059840202301325474
9.334336055622195,0.05941121102094041
9.239314235872861,0.05902348634363676
9.14390298243603,0.05798592603758913
9.048881162686694,0.05755693475720406
8.95385934293736,0.05669895219643391
8.858837523188024,0.056117591920055825
8.76381570343869,0.05570220501431298
8.668793883689354,0.05487188468198203
8.57377206394002,0.05448461348383314
8.478360810503185,0.05359896869462378
8.383338990753849,0.05297588833600951
8.288317171004515,0.05217323023211778
8.193295351255179,0.05177190118017191
8.098273531505845,0.050664958563448895
8.003251711756509,0.05012531836930699
7.908229892007173,0.04948863363605049
7.812818638570342,0.04881022882055781
7.717796818821007,0.048533606536165744
7.622774999071672,0.047703286203834794
7.527753179322337,0.04654101913023337
7.432731359573002,0.04615329445292973
7.337709539823667,0.04586261431474069
7.242687720074327,0.044755581002186726
7.147276466637497,0.04457568582150094
7.052254646888162,0.04381456640818348
6.957232827138826,0.0423199444620723
6.862211007389491,0.042056971900237945
6.767189187640156,0.040451655692454465
6.672167367890821,0.041198943991552314
6.577145548141486,0.04049314903511328
6.481734294704656,0.039856554997687726
6.386712474955316,0.03921996096026218
6.291690655205981,0.03854187358017781
6.196668835456646,0.03791911065697187
6.101647015707311,0.03690884979603966
6.006625195957976,0.036299917987053315
5.911603376208641,0.035400396735708876
5.81619212277181,0.03463923197447595
5.7211703030224745,0.0340026379370504
5.626148483273139,0.033116947799925564
5.531126663523804,0.032521847105158826
5.436104843774469,0.03153929382058129
5.341083024025134,0.030902699783155744
5.246061204275799,0.029933932264882345
5.150649950838964,0.029117443046771
5.0556281310896285,0.02823175290964617
4.960606311340293,0.027332186310386253
4.865584491590958,0.026446496173261422
4.770562671841623,0.025643838069369682
4.675540852092288,0.024619746094217868
4.580519032342953,0.023374220247805975
4.485107778906122,0.02232246604421495
4.390085959156787,0.02165816443043472
4.295064139407452,0.02026040563177624
4.200042319658117,0.01908408070437784
4.105020499908782,0.0182675914862665
4.0099986801594465,0.017049773216209287
3.9149768604101114,0.01580424736979739
3.8195656069732764,0.014448027261713197
3.7245437872239413,0.013299364562754004
3.629521967474606,0.012399843311409565
3.534500147725271,0.010822143984149822
3.439478327975936,0.009369060728612929
3.3444565082266005,0.008580233738940794
3.2494346884772654,0.006961041069022239
3.1544128687279303,0.005570220501431298
3.0590016152910997,0.0042942662037362776
2.9639797955417646,0.0027027720405893084
2.8689579757924295,0.0009784220894778403
2.7739361560430944,-0.00036535182972533
2.6789143362937593,-0.002214252551561368
2.583892516544424,-0.004045165569245447
2.4888706967950887,-0.005574392509654916
2.393459443358254,-0.007185241163126236
2.2984376236089186,-0.009279090464312297
2.2034158038595835,-0.010827721777753136
2.1083939841102484,-0.012816363915039264
2.0133721643609133,-0.01467635401612534
1.9183503446115782,-0.016814508230729604
1.823328524862243,-0.018779660147800144
1.7279172714254123,-0.021090771312022662
1.6328954516760772,-0.023305019328792483
1.537873631926742,-0.025823733250055474
1.442851812177407,-0.028107182185838787
1.3478299924280719,-0.03080579128778757
1.2528081726787366,-0.03326918075217215
1.1577863529293972,-0.03578789467343515
1.0623750994925665,-0.038375764165796154
0.9673532797432314,-0.041281976024785415
0.8723314599938963,-0.044229726574348954
0.7773096402445611,-0.04717725038433513
0.682287820495226,-0.05045726511057747
0.5872660007458909,-0.0535295863839484
0.4922441809965557,-0.05683726333862994
0.39683292755972505,-0.060795229401210224
0.30181110781038556,-0.06432420418340544
0.20678928806105043,-0.0681021390215535
0.11176746831171529,-0.07171410048906632
0.01674564856238014,-0.07594868883603867
-0.078276171186955,-0.08028032172212561
-0.17329799093629014,-0.08472305700112413
-0.26870924437312077,-0.08881933420590045
-0.3637310641224559,-0.09406427410963596
-0.4587528838717911,-0.09872785373699339
-0.5537747036211262,-0.10402857157676204
-0.6487965233704613,-0.109619516075565
-0.7438183431197966,-0.11490572258238195
-0.8388401628691317,-0.12120273412511681
-0.9342514163059666,-0.12719500767586567
-1.0292732360552996,-0.1334502991363643
-1.1242950558046347,-0.14006519956657268
-1.2193168755539698,-0.14680480676433483
-1.314338695303305,-0.1543058054629073
-1.4093605150526403,-0.16157144848016913
-1.5043823348019754,-0.16934906946313366
-1.5997935882388081,-0.17770759724332152
-1.6948154079881432,-0.1863708630154954
-1.7898372277374783,-0.19734551203938466
-1.8848590474868137,-0.2048183950303632
-1.9798808672361488,-0.21533639054542816
-2.074902686985486,-0.22585393258133837
-2.169924506734821,-0.23554115428491765
-2.2653357601716517,-0.2460591497999826
-2.360357579920987,-0.2578219455948119
-2.455379399670324,-0.26958519486879595
-2.5504012194196592,-0.2821787644751109
-2.6454230391689944,-0.2944957117970338
-2.74044485891833,-0.3083349886414225
-2.835466678667665,-0.3216205674378724
-2.930488498417,-0.33587477770884927
-3.025899751853833,-0.3513742417387452
-3.120921571603168,-0.36659753696340375
-3.215943391352503,-0.3823740767568464
-3.310965211101838,-0.39911924802481613
-3.4059870308511733,-0.4178021357209945
-3.5010088506005084,-0.4351010050369031
-3.5960306703498435,-0.4546128526279482
-3.6914419237866762,-0.4742666391944273
-3.786463743536012,-0.49446913553814303
-3.881485563285347,-0.5155060335265825
-3.976507383034682,-0.5369555975458363
-4.071529202784017,-0.5600694300629899
-4.166551022533352,-0.5844257954641342
-4.261572842282687,-0.6089182046117009
-4.35698409571952,-0.633968393119599
-4.452005915468855,-0.6608143590802718
-4.54702773521819,-0.6880775258633064
-4.642049554967525,-0.716587760321879
-4.7370713747168605,-0.7462044839180201
-4.832093194466196,-0.7769276966517292
-4.927115014215531,-0.808616819985037
-5.022526267652363,-0.8418296332782749
-5.1175480874016985,-0.8757362696782666
-5.2125699071510345,-0.9099195283626504
-5.30759172690037,-0.9468690098909548
-5.402613546649705,-0.9853421813791893
-5.49763536639904,-1.02312152976067
-5.592657186148375,-1.0639482580620108
-5.688068439585208,-1.1058814755009199
-5.783090259334543,-1.1494744266461814
-5.878112079083878,-1.193897244644619
-5.973133898833213,-1.239149929496233
-6.068155718582548,-1.287313950521285
-6.163177538331883,-1.3358861027856037
-6.258199358081218,-1.38584590126343
-6.353610611518051,-1.4378826342699706
-6.448632431267386,-1.492132345551648
-6.543654251016721,-1.5463775220417777
-6.638676070766056,-1.6038106569897375
-6.7336978905153915,-1.6615204142220894
-6.828719710264727,-1.7214431497295777
-6.923741530014062,-1.7820597083438199
-7.019152783450894,-1.8459957343707671
-7.1141746032002295,-1.910208382682106
-7.2091964229495655,-1.974838231815807
-7.304218242698901,-2.044034616037751
-7.399240062448236,-2.1146141116816546
-7.494261882197571,-2.18795983016948
-7.589283701946906,-2.2585393258133837
-7.684694955383739,-2.3318850443012087
-7.779716775133074,-2.4080015204245013
-7.874738594882409,-2.4841179965477944
-7.969760414631744,-2.5616130493015
-8.064782234381079,-2.6418833944822215
-8.159804054130417,-2.7221492048713953
-8.254825873879751,-2.80379812668253
-8.350237127316582,-2.884063937071703
-8.445258947065918,-2.9698667279402664
-8.540280766815254,-3.0542864073868685
-8.63530258656459,-3.1400891982554313
-8.730324406313924,-3.2272751005459543
-8.82534622606326,-3.3158441142584376
-8.920368045812594,-3.404413127970921
-9.01538986556193,-3.492986676474952
-9.110801118998763,-3.5857050244533157
-9.205822938748097,-3.6756616843793073
-9.300844758497433,-3.7656138095137512
-9.39586657824677,-3.8583366922836624
-9.490888397996104,-3.949676463631614
-9.58591021774544,-4.041011700188019
-9.680932037494774,-4.132351471535969
-9.776343290931607,-4.223686708092374
-9.871365110680943,-4.317792702284246
-9.966386930430277,-4.406366250788277
-10.061408750179613,-4.49631837592272
-10.156430569928947,-4.586261431474069
-10.251452389678283,-4.673465472930782
-10.346474209427617,-4.7620299518517175
-10.44188546286445,-4.84646777046451
-10.536907282613786,-4.932266026541525
-10.63192910236312,-5.016658497238843
-10.726950922112456,-5.098330093007714
-10.82197274186179,-5.1785959033968885
-10.916994561611126,-5.257455928406364
-11.01201638136046,-5.334955515951618
-11.107427634797293,-5.408328443188727
-11.20244945454663,-5.4816560225103625
-11.297471274295965,-5.5536231643677745
-11.3924930940453,-5.621418298001568
-11.487514913794636,-5.686492556706915
-11.58253673354397,-5.748755244652868
-11.677558553293306,-5.8082517097549
-11.772969806730138,-5.866387737392707
-11.867991626479473,-5.920351756806898
-11.963013446228809,-5.972955338756865
-12.058035265978143,-6.021386912483214
-12.153057085727479,-6.065691825901419
-12.248078905476813,-6.1099513914041506
-12.343100725226149,-6.148723859134513
-12.438511978662982,-6.1860905414851795
-12.533533798412316,-6.219285215612229
-12.628555618161652,-6.249713666895356
-12.723577437910986,-6.276015457870339
-12.818599257660322,-6.300956811381099
-12.913621077409656,-6.323086594132465
-13.008642897158992,-6.339683931195989
-13.104054150595825,-6.356281268259513
-13.199075970345163,-6.3687519450148935
-13.294097790094497,-6.378456398926352
-13.389119609843833,-6.386755067458115
-13.484141429593167,-6.390881727766259
-13.579163249342503,-6.3922875131459564
-13.674185069091838,-6.3922875131459564
-13.769596322528669,-6.388115504922339
-13.864618142278005,-6.382583059234496
-13.959639962027339,-6.3756448281669575
-14.054661781776675,-6.367346159635196
-14.149683601526009,-6.354920830795289
-14.244705421275345,-6.342450154039909
-14.33972724102468,-6.3258528169763855
-14.435138494461516,-6.309255479912862
-14.53016031421085,-6.289846572089942
-14.625182133960186,-6.269122574718274
-14.72020395370952,-6.246947444051435
-14.815225773458856,-6.22481766130007
-14.91024759320819,-6.201282093169007
-15.005269412957526,-6.176386087573721
-15.10029123270686,-6.148723859134513
-15.195702486143691,-6.12242206815953
-15.290724305893027,-6.093354054340626
-15.385746125642362,-6.064286040521722
-15.480767945391698,-6.035218026702817
-15.575789765141032,-6.00478957541969
-15.67081158489037,-5.974315776221088
-15.765833404639704,-5.942481539558264
-15.861244658076536,-5.912053088275136
-15.956266477825872,-5.8788584141480875
-16.05128829757521,-5.847024177485263
-16.146310117324543,-5.8137841554427405
-16.241331937073877,-5.781949918779916
-16.33635375682321,-5.750161030032565
-16.43137557657255,-5.715560570525819
-16.52678683000938,-5.682320548483297
-16.621808649758716,-5.650486311820472
-16.71683046950805,-5.615885852313727
-16.811852289257388,-5.582691178186678
-16.906874109006722,-5.550856941523853
-17.001895928756056,-5.516256482017107
-17.09691774850539,-5.484422245354283
-17.192329001942223,-5.451227571227235
-17.28735082169156,-5.41939333456441
-17.382372641440895,-5.387559097901584
-17.47739446119023,-5.35572486123876
-17.572416280939564,-5.3238906245759345
-17.6674381006889,-5.2934621732928075
-17.762459920438236,-5.261627936629982
-17.85787117387507,-5.231154137431381
-17.952892993624403,-5.200725686148254
-18.047914813373737,-5.171657672329349
-18.142936633123075,-5.142589658510445
-18.23795845287241,-5.1121612072273175
-18.332980272621743,-5.083093193408414
-18.42800209237108,-5.054025179589509
-18.523413345807914,-5.026362951150302
-18.618435165557248,-4.9986553747956215
-18.713456985306582,-4.970993146356414
-18.808478805055916,-4.94192513253751
-18.903500624805254,-4.917029126942224
-18.998522444554588,-4.889366898503017
-19.093544264303922,-4.864425544992257
-19.188955517740755,-4.836763316553051
-19.28397733749009,-4.811867310957765
-19.378999157239427,-4.7869259574470036
-19.474020976988765,-4.7620299518517175
-19.5690427967381,-4.7371339462564315
-19.664064616487433,-4.7135983781253685
-19.759086436236768,-4.690062809994306
-19.8544976896736,-4.6651668043990195
-19.949519509422935,-4.642991673732181
-20.04454132917227,-4.619501453516592
-20.139563148921603,-4.597326322849752
-20.23458496867094,-4.5751965400983865
-20.329606788420275,-4.553066757347021
-20.42462860816961,-4.530918835429466
-20.519865667918026,-4.510158559725419
-20.61506168135578,-4.489398284021371
-20.710083501105114,-4.468642543108871
-20.80510532085445,-4.447882267404824
-20.900127140603786,-4.428509637914284
-20.99514896035312,-4.407749362210237
-21.090170780102454,-4.389759844141658
-21.185582033539287,-4.370382679859571
-21.28060385328862,-4.351010050369031
-21.375625673037955,-4.331632886086943
-21.470647492787293,-4.313643368018365
-21.565669312536627,-4.295653849949786
-21.66069113228596,-4.277659797089659
-21.755712952035296,-4.259670279021079
-21.851124205472132,-4.243063872374461
-21.946146025221466,-4.225074354305882
-22.041167844970804,-4.208467947659263
-22.13618966472014,-4.191857006221096
-22.231211484469473,-4.175250599574477
-22.326233304218807,-4.158644192927858
-22.421255123968145,-4.1434208977032
-22.516666377404974,-4.128197602478541
-22.611688197154308,-4.111591195831923
-22.706710016903646,-4.097751012029224
-22.80173183665298,-4.082532251596113
-22.896753656402314,-4.067308956371455
-22.99177547615165,-4.053468772568756
-23.086797295900986,-4.0382454773440974
-23.18181911565032,-4.024405293541399
-23.277230369087153,-4.0105651097387005
-23.37225218883649,-3.99672946072755
-23.467274008585825,-3.9828892769248516
-23.56229582833516,-3.9704322045441143
-23.657317648084497,-3.9565965555329634
-23.75233946783383,-3.944139483152225
-23.847361287583166,-3.9316824107714874
-23.942772541020002,-3.9178467617603365
-24.037794360769336,-3.905389689379599
-24.13281618051867,-3.894320263212369
-24.227838000268004,-3.8804800794096703
-24.322859820017342,-3.8694061184508928
-24.417881639766676,-3.8583366922836624
-24.513292893203506,-3.8472672661164324
-24.608314712952843,-3.8361933051576553
-24.703336532702178,-3.825123878990425
-24.798358352451512,-3.8126668066096867
-24.893380172200846,-3.802980491864417
-24.988401991950184,-3.791911065697187
-25.083423811699518,-3.78222021616037
-25.178445631448852,-3.77115078999314
-25.27385688488569,-3.76146447524787
-25.368878704635023,-3.7517781605026004
-25.463900524384357,-3.7420873109657826
-25.558922344133695,-3.732400996220513
-25.65394416388303,-3.722714681475243
-25.748965983632363,-3.713028366729973
-25.843987803381697,-3.7047251634066636
-25.93939905681853,-3.6950343138698467
-26.034420876567864,-3.6867311105465372
-26.1294426963172,-3.6784279072232278
-26.224464516066536,-3.6701247038999183
-26.31948633581587,-3.661821500576609
-26.414508155565205,-3.652135185831339
-26.50952997531454,-3.64521509392999
-26.604941228751375,-3.636911890606681
-26.69996304850071,-3.6286086872833714
-26.794984868250047,-3.621688595382022
-26.89000668799938,-3.6133853920587127
-26.985028507748716,-3.6064653001573634
-27.08005032749805,-3.599545208256014
-27.175072147247388,-3.592625116354665
-27.270483400684217,-3.5870926706668236
-27.36550522043355,-3.578789467343514
-27.46052704018289,-3.573252486864125
-27.555548859932223,-3.5663323949627768
-27.650570679681557,-3.5594123030614275
-27.74559249943089,-3.5538753225820385
-27.840614319180233,-3.5483428768941976
-27.936025572617062,-3.5428058964148086
-28.031047392366396,-3.5372689159354196
-28.126069212115734,-3.531736470247578
-28.22109103186507,-3.5261994897681896
-28.316112851614403,-3.5206625092888006
-28.411134671363737,-3.5165131750229195
-28.506156491113074,-3.512359305965491
-28.601567744549904,-3.5068223254861026
-28.696589564299238,-3.502672991220221
-28.791611384048576,-3.498519122162793
-28.88663320379791,-3.4943697878969124
-28.981655023547244,-3.4902159188394837
-29.07667684329658,-3.486066584573603
-29.171698663045916,-3.4832958269381344
-29.26710991648275,-3.480529604094214
-29.362131736232087,-3.476380269828333
-29.45715355598142,-3.4736095121928647
-29.552175375730755,-3.4708432893489443
-29.64719719548009,-3.4694601779269836
-29.742219015229427,-3.4666894202915155
-29.83724083497876,-3.4653063088695553
-29.932652088415598,-3.463923197447595
-30.02767390816493,-3.4625400860256343
-30.122695727914266,-3.461156974603674
-30.2177175476636,-3.4597693283901667
-30.122695727914266,-3.4210240694090874
